epoch,value
1579801424.378,7972
1579801434.360,7972
1579801444.362,7972
1579801454.359,7972
1579801464.358,7972
1579801474.358,7972
1579801484.358,7972
1579801494.360,7972
1579801504.358,7972
1579801514.359,7972
1579801524.359,7972
1579801534.358,7972
1579801544.358,7972
1579801554.360,7972
1579801564.358,7972
1579801574.359,7972
1579801584.359,7972
1579801594.359,7972
1579801604.359,7972
1579801614.358,7972
1579801624.358,7972
1579801634.360,7972
1579801644.358,7972
1579801654.358,7972
1579801664.358,7972
1579801674.360,7972
1579801684.358,7972
1579801694.359,7972
1579801704.358,7972
1579801714.358,7972
1579801724.359,7972
1579801734.358,7972
1579801744.358,7972
1579801754.360,7972
1579801764.358,7972
1579801774.358,7972
1579801784.359,7972
1579801794.358,7972
1579801804.358,7972
1579801814.359,7972
1579801824.358,7972
1579801834.358,7972
1579801844.359,7972
1579801854.361,7972
1579801864.358,7972
1579801874.358,7972
1579801884.358,7972
1579801894.362,7972
1579801904.359,7972
1579801914.358,7972
1579801924.358,7972
1579801934.358,7972
1579801944.358,7972
1579801954.359,7972
1579801964.358,7972
1579801974.359,7972
1579801984.359,7972
1579801994.358,7972
1579802004.358,7972
1579802014.362,7972
1579802024.359,7972
1579802034.358,7972
1579802044.359,7972
1579802054.358,7972
1579802064.360,7972
1579802074.360,7972
1579802084.359,7972
1579802094.358,7972
1579802104.358,7973
1579802114.358,7974
1579802124.358,7974
1579802134.358,7974
1579802144.358,7974
1579802154.358,7974
1579802164.359,7974
1579802174.358,7974
1579802184.358,7974
1579802194.359,7974
1579802204.358,7974
1579802214.358,7974
1579802224.358,7974
1579802234.358,7974
1579802244.359,7974
1579802254.358,7974
1579802264.358,7974
1579802274.358,7974
1579802284.362,7974
1579802294.359,7974
1579802304.358,7974
1579802314.358,7974
1579802324.359,7974
1579802334.359,7974
1579802344.360,7974
1579802354.358,7974
1579802364.358,7974
1579802374.359,7974
1579802384.359,7974
1579802394.358,7974
1579802404.358,7974
1579802414.358,7974
1579802424.360,7974
1579802434.358,7974
1579802444.359,7974
1579802454.359,7974
1579802464.358,7974
1579802474.359,7974
1579802484.358,7974
1579802494.358,7974
1579802504.358,7974
1579802514.358,7974
1579802524.358,7974
1579802534.358,7974
1579802544.358,7974
1579802554.358,7974
1579802564.358,7974
1579802574.358,7974
1579802584.359,7974
1579802594.359,7974
1579802604.359,7974
1579802614.359,7974
1579802624.358,7974
1579802634.358,7974
1579802644.358,7974
1579802654.358,7974
1579802664.358,7974
1579802674.358,7974
1579802684.358,7974
1579802694.359,7974
1579802704.359,7974
1579802714.358,7974
1579802724.358,7974
1579802734.358,7974
1579802744.358,7974
1579802754.358,7974
1579802764.359,7974
1579802774.358,7974
1579802784.358,7974
1579802794.358,7974
1579802804.358,7974
1579802814.359,7974
1579802824.360,7974
1579802834.358,7974
1579802844.358,7974
1579802854.361,7974
1579802864.358,7974
1579802874.358,7974
1579802884.358,7974
1579802894.358,7974
1579802904.360,7974
1579802914.358,7975
1579802924.359,7975
1579802934.359,7975
1579802944.358,7976
1579802954.358,7976
1579802964.358,7976
1579802974.359,7976
1579802984.359,7976
