epoch,value
1580469323.217,411160
1580469333.197,411162
1580469343.197,411164
1580469353.200,411164
1580469363.199,411165
1580469373.197,411165
1580469383.197,411165
1580469393.197,411165
1580469403.197,411167
1580469413.197,411167
1580469423.197,411167
1580469433.197,411167
1580469443.197,411167
1580469453.197,411167
1580469463.197,411168
1580469473.197,411168
1580469483.197,411168
1580469493.197,411168
1580469503.197,411169
1580469513.197,411169
1580469523.198,411170
1580469533.197,411170
1580469543.197,411170
1580469553.197,411170
1580469563.197,411171
1580469573.197,411173
1580469583.197,411173
1580469593.197,411173
1580469603.198,411173
1580469613.197,411174
1580469623.197,411174
1580469633.197,411176
1580469643.197,411176
1580469653.197,411176
1580469663.197,411176
1580469673.197,411176
1580469683.197,411180
1580469693.197,411180
1580469703.197,411180
1580469713.197,411180
1580469723.197,411180
1580469733.197,411181
1580469743.198,411181
1580469753.197,411181
1580469763.197,411182
1580469773.197,411182
1580469783.197,411182
1580469793.197,411183
1580469803.197,411184
1580469813.197,411184
1580469823.198,411186
1580469833.197,411186
1580469843.197,411186
1580469853.197,411186
1580469863.199,411186
1580469873.198,411186
1580469883.197,411187
1580469893.197,411188
1580469903.197,411188
1580469913.197,411188
1580469923.197,411189
1580469933.199,411189
1580469943.197,411190
1580469953.199,411191
1580469963.197,411191
1580469973.197,411191
1580469983.197,411192
1580469993.197,411192
1580470003.198,411193
1580470013.197,411194
1580470023.199,411194
1580470033.197,411196
1580470043.197,411197
1580470053.197,411197
1580470063.197,411197
1580470073.197,411198
1580470083.197,411198
1580470093.197,411199
1580470103.197,411200
1580470113.199,411201
1580470123.197,411202
1580470133.197,411202
1580470143.197,411202
1580470153.197,411202
1580470163.197,411203
1580470173.198,411203
1580470183.197,411204
1580470193.197,411204
1580470203.199,411205
1580470213.197,411205
1580470223.198,411206
1580470233.197,411206
1580470243.197,411206
1580470253.197,411206
1580470263.197,411207
1580470273.197,411208
1580470283.197,411208
1580470293.197,411209
1580470303.197,411210
1580470313.200,411211
1580470323.197,411211
1580470333.197,411212
1580470343.198,411212
1580470353.197,411212
1580470363.197,411212
1580470373.201,411212
1580470383.197,411213
1580470393.197,411213
1580470403.197,411214
1580470413.197,411214
1580470423.197,411216
1580470433.201,411217
1580470443.197,411219
1580470453.198,411219
1580470463.197,411219
1580470473.199,411219
1580470483.197,411220
1580470493.197,411220
1580470503.197,411220
1580470513.197,411220
1580470523.197,411220
1580470533.197,411221
1580470543.197,411222
1580470553.197,411222
1580470563.197,411222
1580470573.197,411222
1580470583.199,411222
1580470593.197,411222
1580470603.197,411223
1580470613.197,411224
1580470623.197,411224
1580470633.197,411224
1580470643.197,411224
1580470653.197,411224
1580470663.197,411224
1580470673.197,411224
1580470683.197,411224
1580470693.197,411225
1580470703.197,411226
1580470713.197,411226
1580470723.197,411227
1580470733.197,411228
1580470743.199,411228
1580470753.197,411229
1580470763.197,411229
1580470773.197,411230
1580470783.197,411230
1580470793.197,411230
1580470803.197,411231
1580470813.200,411231
1580470823.197,411231
1580470833.197,411232
1580470843.197,411232
1580470853.200,411233
1580470863.198,411233
1580470873.197,411233
1580470883.197,411237
