epoch,value
1579889010.160,0
1579889020.160,0
1579889030.160,0
1579889040.161,0
1579889060.160,20
1579889070.160,40
1579889080.160,41
1579889090.160,46
1579889100.160,69
1579889120.160,73
1579889130.160,74
1579889140.160,92
1579889150.160,98
1579889160.161,134
1579889170.160,144
1579889180.160,163
1579889190.160,179
1579889200.160,187
1579889210.160,197
1579889220.160,202
1579889230.160,208
1579889240.161,217
1579889260.160,240
1579889270.160,249
1579889280.160,266
1579889290.161,274
1579889300.160,303
1579889310.161,313
1579889320.160,329
1579889330.160,360
1579889340.160,379
1579889350.160,379
1579889360.160,379
1579889370.161,379
1579889380.160,379
1579889390.160,379
1579889400.160,379
1579889410.160,379
1579889420.160,379
1579889430.160,379
1579889440.160,379
1579889450.160,379
1579889460.160,379
1579889470.160,379
1579889480.160,379
1579889490.160,379
1579889500.160,379
1579889510.161,379
1579889520.160,379
1579889530.160,379
1579889540.160,379
1579889550.160,379
1579889560.160,379
1579889570.160,379
1579889580.160,379
1579889590.160,380
1579889600.160,380
1579889610.160,380
1579889620.160,380
1579889630.160,380
1579889640.160,380
1579889650.160,380
1579889660.160,380
1579889670.160,380
1579889680.161,380
1579889690.161,380
1579889700.160,380
1579889710.160,380
1579889720.160,380
1579889730.160,380
1579889740.160,380
1579889750.160,380
1579889760.160,380
1579889770.161,380
1579889780.160,380
1579889790.160,380
1579889800.160,380
1579889810.160,380
1579889820.160,380
1579889830.160,380
1579889840.160,380
1579889850.160,380
1579889860.160,380
1579889870.160,380
1579889880.160,380
1579889890.160,380
1579889900.160,380
1579889910.160,380
1579889920.160,380
1579889930.160,380
1579889940.160,380
1579889950.160,380
1579889960.160,380
1579889970.161,380
1579889980.160,380
1579889990.160,380
1579890000.160,380
1579890010.160,380
1579890020.160,380
1579890030.160,380
1579890040.160,380
1579890050.160,380
1579890060.160,380
1579890070.160,380
1579890080.160,380
1579890090.160,380
1579890100.160,380
1579890110.160,380
1579890120.160,380
1579890130.160,380
1579890140.160,380
1579890150.160,380
1579890160.160,380
1579890170.160,380
1579890180.160,380
1579890190.160,380
1579890200.160,380
1579890210.160,380
1579890220.160,380
1579890230.160,380
1579890240.160,380
1579890250.160,380
1579890260.160,381
1579890270.160,381
1579890280.160,381
1579890290.160,381
1579890300.160,381
1579890310.160,381
1579890320.160,381
1579890330.160,381
1579890340.160,381
1579890350.160,381
1579890360.160,381
1579890370.160,381
1579890380.160,381
1579890390.160,381
1579890400.160,381
1579890410.160,381
1579890420.160,381
1579890430.160,381
1579890440.160,381
1579890450.160,381
1579890460.160,381
1579890470.160,381
1579890480.160,381
1579890490.160,381
1579890500.160,381
1579890510.160,381
1579890520.160,381
1579890530.160,381
1579890540.160,381
1579890550.160,381
1579890560.160,381
1579890570.160,381
1579890580.164,381
1579890590.160,381
1579890600.160,381
1579890610.160,381
1579890620.160,381
1579890630.160,381
1579890640.160,381
1579890650.160,381
1579890660.160,381
1579890670.160,381
1579890680.160,381
1579890690.160,381
1579890700.160,381
1579890710.160,381
1579890720.160,382
1579890730.160,382
1579890740.160,382
1579890750.160,382
1579890760.160,382
1579890770.160,382
1579890780.160,382
1579890790.160,382
1579890800.160,382
1579890810.160,382
1579890820.160,382
1579890830.160,382
1579890840.160,382
1579890850.160,382
1579890860.160,382
1579890870.160,382
1579890880.160,382
1579890890.160,382
1579890900.160,382
1579890910.160,382
1579890920.160,382
1579890930.160,382
1579890940.160,382
1579890950.160,382
1579890960.160,382
1579890970.160,382
1579890980.160,382
1579890990.160,382
1579891000.160,382
1579891010.160,382
1579891020.160,382
1579891030.160,382
1579891040.160,382
1579891050.160,382
1579891060.160,382
1579891070.160,382
1579891080.160,382
1579891090.160,382
1579891100.160,382
1579891110.160,382
1579891120.160,382
1579891130.160,382
1579891140.160,382
1579891150.160,382
1579891160.160,382
1579891170.160,382
1579891180.160,382
1579891190.160,382
1579891200.160,382
1579891210.160,382
1579891220.160,382
1579891230.160,382
1579891240.160,383
1579891250.160,383
1579891260.160,383
1579891270.160,383
1579891280.160,383
1579891290.160,383
1579891300.160,383
1579891310.160,383
1579891320.160,383
1579891330.160,383
1579891340.160,383
1579891350.160,383
1579891360.160,383
1579891370.160,383
1579891380.160,383
1579891390.160,383
1579891400.160,383
1579891410.160,383
1579891420.160,383
1579891430.160,383
1579891440.160,383
1579891450.160,383
1579891460.160,383
1579891470.160,383
1579891480.160,383
1579891490.160,383
1579891500.160,383
1579891510.160,383
1579891520.160,383
1579891530.160,383
1579891540.160,383
1579891550.160,383
1579891560.160,383
1579891570.160,383
1579891580.160,383
1579891590.160,383
1579891600.161,383
1579891610.160,383
1579891630.160,383
1579891640.160,383
1579891650.160,383
1579891660.160,383
1579891670.160,383
1579891680.160,383
1579891690.160,383
1579891700.160,383
1579891710.160,383
1579891720.160,383
1579891730.160,383
1579891740.160,384
