epoch,value
1580818493.685,0
1580818513.683,0
1580818523.683,1
1580818533.683,5
1580818543.683,6
1580818553.683,6
1580818563.683,7
1580818573.684,8
1580818583.683,8
1580818593.683,10
1580818603.683,21
1580818613.683,22
1580818623.683,23
1580818633.683,23
1580818643.683,25
1580818653.683,26
1580818673.683,27
1580818683.683,28
1580818693.683,29
1580818703.683,30
1580818713.683,31
1580818723.683,32
1580818733.683,34
1580818743.683,35
1580818753.683,36
1580818763.686,38
1580818773.683,39
1580818783.683,40
1580818793.683,42
1580818803.683,43
1580818813.683,44
1580818823.683,44
1580818833.683,44
1580818843.683,44
1580818853.689,44
1580818863.683,45
1580818873.683,46
1580818883.683,46
1580818893.683,47
1580818903.683,47
1580818913.683,47
1580818923.683,47
1580818933.685,47
1580818943.683,47
1580818953.683,48
1580818963.685,48
1580818973.683,48
1580818983.686,48
1580818993.683,48
1580819003.683,48
1580819013.683,48
1580819023.683,48
1580819033.683,48
1580819043.683,48
1580819053.683,48
1580819063.683,49
1580819073.683,49
1580819083.683,49
1580819093.683,49
1580819103.683,49
1580819113.683,49
1580819123.683,49
1580819133.683,49
1580819143.683,49
1580819153.683,49
1580819163.683,50
1580819173.683,50
1580819183.683,50
1580819193.683,50
1580819203.683,50
1580819213.688,50
1580819223.683,50
1580819233.683,50
1580819243.683,50
1580819253.683,50
1580819263.683,50
1580819273.683,50
1580819283.683,50
1580819293.683,51
1580819303.683,51
1580819313.683,51
1580819323.683,51
1580819333.683,51
1580819343.684,52
1580819353.683,52
1580819363.683,52
1580819373.683,52
1580819383.683,52
1580819393.683,52
1580819403.683,52
1580819413.683,53
1580819423.683,53
1580819433.683,53
1580819443.683,53
1580819453.683,53
1580819463.683,53
1580819473.683,53
1580819483.687,53
1580819493.683,53
1580819503.684,53
1580819513.683,53
1580819523.683,54
1580819533.683,54
1580819543.687,54
1580819553.683,54
1580819563.683,54
1580819573.683,54
1580819583.683,54
1580819593.683,54
1580819603.683,54
1580819613.683,54
1580819623.683,54
1580819633.683,54
1580819643.683,54
1580819653.683,54
1580819663.683,54
1580819673.683,54
1580819683.683,55
1580819693.683,55
1580819703.683,55
1580819713.683,55
1580819723.683,55
1580819733.683,55
1580819743.683,55
1580819753.683,55
1580819763.685,55
1580819773.683,55
1580819783.683,56
1580819793.689,56
1580819803.683,56
1580819813.689,56
1580819823.683,56
1580819833.683,56
1580819843.683,56
1580819853.683,56
1580819863.683,56
1580819873.688,56
1580819883.683,56
1580819893.683,56
1580819903.683,56
1580819913.683,56
1580819923.683,56
1580819933.683,56
1580819953.683,56
1580819963.683,56
1580819973.683,56
1580819993.683,56
1580820013.683,56
1580820023.683,56
1580820033.685,56
1580820043.683,56
1580820053.683,56
1580820063.683,56
1580820073.683,57
1580820083.683,57
