epoch,value
1580479963.604,411938
1580479973.583,411940
1580479983.583,411940
1580479993.582,411940
1580480003.582,411940
1580480013.582,411940
1580480023.583,411940
1580480033.582,411941
1580480043.582,411941
1580480053.582,411941
1580480063.582,411941
1580480073.583,411942
1580480083.582,411942
1580480093.583,411943
1580480103.587,411944
1580480113.585,411945
1580480123.582,411945
1580480133.583,411945
1580480143.582,411946
1580480153.583,411947
1580480163.582,411948
1580480173.583,411948
1580480183.582,411948
1580480193.582,411949
1580480203.583,411949
1580480213.583,411949
1580480223.582,411949
1580480233.582,411949
1580480243.582,411950
1580480253.582,411950
1580480263.585,411950
1580480273.582,411950
1580480283.583,411950
1580480293.582,411951
1580480303.583,411951
1580480313.583,411951
1580480323.582,411952
1580480333.582,411952
1580480343.582,411953
1580480353.582,411954
1580480363.582,411954
1580480373.582,411955
1580480383.582,411957
1580480393.582,411957
1580480403.582,411958
1580480413.582,411958
1580480423.582,411958
1580480433.583,411959
1580480443.582,411960
1580480453.582,411960
1580480463.582,411960
1580480473.582,411960
1580480483.582,411960
1580480493.582,411960
1580480503.582,411960
1580480513.583,411960
1580480523.584,411961
1580480533.582,411962
1580480543.582,411962
1580480553.583,411962
1580480563.582,411962
1580480573.583,411962
1580480583.582,411962
1580480593.583,411965
1580480603.585,411965
1580480613.583,411965
1580480623.584,411965
1580480633.582,411966
1580480643.583,411966
1580480653.582,411966
1580480663.582,411966
1580480673.585,411967
1580480683.582,411969
1580480693.583,411969
1580480703.583,411969
1580480713.583,411970
1580480723.582,411970
1580480733.582,411970
1580480743.583,411970
1580480753.583,411971
1580480763.582,411972
1580480773.582,411973
1580480783.582,411974
1580480793.582,411976
1580480803.582,411976
1580480813.582,411976
1580480823.582,411976
1580480833.582,411976
1580480843.583,411976
1580480853.583,411978
1580480863.582,411979
1580480873.582,411979
1580480883.582,411979
1580480893.582,411979
1580480903.582,411980
1580480913.582,411980
1580480923.582,411980
1580480933.582,411980
1580480943.582,411982
1580480953.582,411982
1580480963.582,411983
1580480973.582,411983
1580480983.582,411983
1580480993.584,411983
1580481003.582,411983
1580481013.582,411984
1580481023.582,411984
1580481033.582,411985
1580481043.583,411986
1580481053.582,411987
1580481063.582,411988
1580481073.582,411988
1580481083.583,411990
1580481093.582,411990
1580481103.582,411990
1580481113.582,411991
1580481123.583,411991
1580481133.582,411993
1580481143.582,411993
1580481153.582,411993
1580481163.583,411994
1580481173.582,411994
1580481183.582,411994
1580481193.582,411995
1580481203.583,411996
1580481213.582,411998
1580481223.582,411999
1580481233.583,412000
1580481243.583,412000
1580481253.582,412000
1580481263.582,412000
1580481273.582,412000
1580481283.583,412000
1580481293.583,412002
1580481303.582,412002
1580481313.583,412003
1580481323.582,412004
1580481333.582,412004
1580481343.582,412004
1580481353.582,412004
1580481363.582,412006
1580481373.582,412006
1580481383.582,412006
1580481393.582,412006
1580481403.582,412006
1580481413.582,412006
1580481423.582,412008
1580481433.583,412008
1580481443.583,412008
1580481453.582,412010
1580481463.582,412010
1580481473.583,412011
1580481483.583,412012
1580481493.582,412012
1580481503.582,412012
1580481513.585,412014
1580481523.582,412014
