epoch,value
1580586577.604,56320
1580586587.585,56320
1580586597.585,56320
1580586607.585,56320
1580586617.585,56320
1580586627.585,56321
1580586637.585,56321
1580586647.587,56321
1580586657.585,56321
1580586667.585,56321
1580586677.585,56321
1580586687.585,56321
1580586697.585,56321
1580586707.586,56321
1580586717.585,56321
1580586727.585,56321
1580586737.585,56321
1580586747.585,56322
1580586757.585,56322
1580586767.585,56322
1580586777.585,56322
1580586787.585,56323
1580586797.585,56323
1580586807.585,56323
1580586817.585,56323
1580586827.585,56323
1580586837.585,56324
1580586847.585,56326
1580586857.585,56326
1580586867.589,56326
1580586877.585,56326
1580586887.584,56326
1580586897.585,56326
1580586907.585,56326
1580586917.585,56326
1580586927.585,56326
1580586937.585,56326
1580586947.585,56326
1580586957.585,56326
1580586967.587,56326
1580586977.585,56326
1580586987.585,56326
1580586997.586,56326
1580587007.585,56326
1580587017.585,56326
1580587027.585,56326
1580587037.585,56327
1580587047.585,56327
1580587057.585,56327
1580587067.586,56327
1580587077.585,56327
1580587087.585,56327
1580587097.585,56328
1580587107.585,56328
1580587117.585,56330
1580587127.585,56330
1580587137.585,56330
1580587147.585,56330
1580587157.585,56330
1580587167.585,56330
1580587177.585,56330
1580587187.585,56330
1580587197.585,56331
1580587207.585,56331
1580587217.587,56331
1580587227.585,56331
1580587237.588,56331
1580587247.585,56332
1580587257.585,56332
1580587267.585,56332
1580587277.585,56332
1580587287.585,56332
1580587297.585,56332
1580587307.585,56332
1580587317.585,56333
1580587327.585,56333
1580587337.585,56333
1580587347.585,56333
1580587357.584,56333
1580587367.585,56333
1580587377.585,56334
1580587387.585,56334
1580587397.585,56334
1580587407.585,56335
1580587417.585,56335
1580587427.585,56335
1580587437.584,56336
1580587447.585,56338
1580587457.585,56339
1580587467.585,56339
1580587477.586,56341
1580587487.585,56343
1580587497.585,56343
1580587507.585,56343
1580587517.585,56343
1580587527.585,56343
1580587537.585,56343
1580587547.585,56343
1580587557.585,56344
1580587567.586,56344
1580587577.585,56344
1580587587.585,56344
1580587597.585,56344
1580587607.585,56344
1580587617.585,56344
1580587627.585,56345
1580587637.585,56345
1580587647.585,56345
1580587657.585,56345
1580587667.585,56345
1580587677.585,56345
1580587687.585,56345
1580587697.585,56346
1580587707.585,56346
1580587717.585,56346
1580587727.585,56346
1580587737.585,56346
1580587747.585,56346
1580587757.585,56346
1580587767.585,56347
1580587777.585,56347
1580587787.585,56347
1580587797.585,56347
1580587807.585,56347
1580587817.585,56347
1580587827.585,56347
1580587837.585,56347
1580587847.585,56347
1580587857.585,56347
1580587867.585,56347
1580587877.585,56347
1580587887.585,56347
1580587897.585,56347
1580587907.585,56347
1580587917.585,56349
1580587927.585,56349
1580587937.585,56349
1580587947.585,56349
1580587957.585,56349
1580587967.585,56349
1580587977.585,56349
1580587987.585,56349
1580587997.585,56349
1580588007.585,56349
1580588017.587,56349
1580588027.585,56349
1580588037.585,56349
1580588047.585,56350
1580588057.585,56350
1580588067.585,56350
1580588077.585,56350
1580588087.586,56350
1580588097.585,56350
1580588107.585,56352
1580588117.585,56352
1580588127.586,56353
1580588137.586,56353
1580588147.585,56353
1580588157.584,56353
1580588167.585,56353
1580588177.585,56353
1580588187.585,56353
1580588197.587,56353
1580588207.586,56353
1580588217.585,56353
1580588227.585,56353
1580588237.585,56353
1580588247.585,56353
1580588257.585,56353
1580588267.588,56353
1580588277.585,56353
1580588287.585,56353
1580588297.585,56354
1580588307.585,56354
1580588317.585,56354
1580588327.585,56354
1580588337.585,56354
1580588347.586,56354
1580588357.585,56354
1580588367.585,56354
1580588377.585,56354
1580588387.585,56354
1580588397.585,56354
1580588407.585,56354
1580588417.585,56354
1580588427.585,56354
1580588437.585,56354
1580588447.585,56354
1580588457.585,56354
1580588467.586,56354
1580588477.585,56354
1580588487.585,56354
1580588497.586,56354
1580588507.585,56354
1580588517.585,56354
1580588527.585,56354
1580588537.585,56354
1580588547.589,56354
1580588557.587,56355
1580588567.585,56355
1580588577.585,56355
1580588587.586,56355
1580588597.585,56355
1580588607.585,56355
1580588617.585,56355
1580588627.585,56355
1580588637.585,56356
1580588647.585,56358
1580588657.585,56358
1580588667.585,56358
1580588677.585,56358
1580588687.585,56358
1580588697.585,56358
1580588707.585,56358
1580588717.586,56358
1580588727.585,56358
1580588737.585,56358
1580588747.585,56358
1580588757.585,56360
1580588767.586,56360
1580588777.586,56361
1580588787.585,56361
1580588797.587,56361
1580588807.585,56361
1580588817.585,56362
1580588827.586,56362
1580588837.586,56362
1580588847.585,56362
1580588857.586,56362
1580588867.585,56362
1580588877.585,56362
1580588887.586,56362
1580588897.585,56362
1580588907.585,56362
1580588917.585,56362
1580588927.585,56362
1580588937.586,56362
1580588947.585,56362
1580588957.585,56363
1580588967.585,56363
1580588977.585,56363
1580588987.585,56363
1580588997.586,56363
1580589007.585,56363
1580589017.585,56363
1580589027.585,56363
1580589037.585,56363
1580589047.585,56363
1580589057.585,56363
1580589067.584,56363
1580589077.585,56363
1580589087.585,56363
1580589097.585,56365
1580589107.585,56365
1580589117.586,56365
1580589127.585,56365
1580589137.585,56365
1580589147.585,56365
1580589157.587,56365
1580589167.585,56365
1580589177.585,56365
1580589187.585,56365
1580589197.585,56365
1580589207.585,56365
1580589217.585,56365
1580589227.586,56365
1580589237.585,56365
1580589247.585,56365
1580589257.585,56365
1580589267.585,56365
1580589277.585,56365
1580589287.585,56365
1580589297.586,56365
1580589307.584,56365
1580589317.585,56365
1580589327.585,56365
1580589337.585,56365
1580589347.585,56365
1580589357.585,56365
1580589367.585,56365
1580589377.585,56365
1580589387.585,56365
1580589397.587,56365
1580589407.585,56365
1580589417.585,56365
1580589427.585,56366
1580589437.585,56368
1580589447.585,56368
1580589457.585,56369
1580589467.585,56370
1580589477.585,56370
1580589487.585,56370
1580589497.584,56370
1580589507.585,56370
1580589517.585,56370
1580589527.585,56371
1580589537.585,56371
1580589547.585,56371
1580589557.585,56371
1580589567.585,56371
1580589577.586,56371
1580589587.585,56371
1580589597.585,56371
1580589607.585,56371
1580589617.585,56372
1580589627.585,56372
1580589637.585,56373
1580589647.585,56376
1580589657.585,56376
1580589667.585,56376
1580589677.585,56376
1580589687.585,56376
1580589697.585,56376
1580589707.585,56376
1580589717.585,56376
1580589727.585,56376
1580589737.586,56376
1580589747.585,56376
1580589757.585,56376
1580589767.586,56376
1580589777.585,56376
1580589787.585,56376
1580589797.585,56376
1580589807.585,56376
1580589817.585,56376
1580589827.585,56376
1580589837.585,56376
1580589847.585,56376
1580589857.585,56376
1580589867.585,56376
1580589877.585,56376
1580589887.585,56376
1580589897.585,56376
1580589907.585,56376
1580589917.585,56376
1580589927.585,56376
1580589937.585,56377
1580589947.585,56377
1580589957.587,56377
1580589967.587,56377
1580589977.585,56377
1580589987.585,56377
1580589997.585,56378
1580590007.585,56379
1580590017.585,56380
1580590027.585,56380
1580590037.585,56380
1580590047.585,56380
1580590057.586,56380
1580590067.585,56380
1580590077.585,56380
1580590087.586,56380
1580590097.585,56381
1580590107.585,56381
1580590117.585,56381
1580590127.585,56381
1580590137.585,56381
1580590147.585,56381
1580590157.585,56382
1580590167.585,56382
1580590177.585,56382
1580590187.585,56382
1580590197.585,56382
1580590207.585,56382
1580590217.586,56382
1580590227.585,56382
1580590237.585,56382
1580590247.585,56382
1580590257.585,56382
1580590267.585,56382
1580590277.585,56382
1580590287.585,56382
1580590297.585,56382
1580590307.585,56382
1580590317.585,56382
1580590327.585,56382
1580590337.585,56382
1580590347.585,56382
1580590357.585,56382
1580590367.585,56382
1580590377.585,56382
1580590387.585,56382
1580590397.585,56383
1580590407.585,56383
1580590417.585,56383
1580590427.585,56383
1580590437.585,56383
1580590447.585,56383
1580590457.586,56384
1580590467.585,56384
1580590477.585,56384
1580590487.585,56384
1580590497.585,56384
1580590507.585,56384
1580590517.585,56384
1580590527.588,56384
1580590537.585,56384
1580590547.585,56384
1580590557.585,56384
1580590567.585,56384
1580590577.587,56384
1580590587.585,56384
1580590597.585,56384
1580590607.585,56384
1580590617.585,56384
1580590627.588,56384
1580590637.585,56386
1580590647.586,56386
1580590657.585,56386
1580590667.585,56386
1580590677.585,56386
1580590687.585,56386
1580590697.585,56386
1580590707.585,56386
1580590717.585,56386
1580590727.585,56386
1580590737.585,56386
1580590747.585,56386
1580590757.585,56386
1580590767.585,56386
1580590777.585,56389
1580590787.585,56389
1580590797.585,56389
1580590807.586,56390
1580590817.588,56390
1580590827.586,56390
1580590837.586,56392
1580590847.585,56394
1580590857.585,56394
1580590867.585,56394
1580590877.585,56394
1580590887.585,56394
1580590897.585,56394
1580590907.585,56394
1580590917.585,56394
1580590927.585,56394
1580590937.585,56394
1580590947.585,56395
1580590957.585,56395
1580590967.585,56395
1580590977.585,56395
1580590987.585,56395
1580590997.585,56395
1580591007.585,56396
1580591017.586,56396
1580591027.586,56396
1580591037.585,56396
1580591047.585,56396
1580591057.585,56396
1580591067.585,56396
1580591077.585,56396
1580591087.585,56396
1580591097.585,56396
1580591107.585,56396
1580591117.586,56396
1580591127.585,56398
1580591137.585,56398
1580591147.585,56398
1580591157.585,56398
1580591167.585,56398
1580591177.585,56398
1580591187.585,56398
1580591197.585,56401
1580591207.585,56402
1580591217.585,56402
1580591227.585,56403
1580591237.585,56403
1580591247.586,56403
1580591257.585,56403
1580591267.585,56403
1580591277.585,56404
1580591287.585,56404
1580591297.585,56404
1580591307.586,56404
1580591317.585,56404
1580591327.585,56404
1580591337.585,56404
1580591347.586,56404
1580591357.585,56404
1580591367.585,56404
1580591377.585,56404
1580591387.585,56405
1580591397.585,56406
1580591407.585,56406
1580591417.585,56406
1580591427.585,56406
1580591437.585,56407
1580591447.586,56407
1580591457.585,56407
1580591467.585,56407
1580591477.585,56409
1580591487.585,56410
1580591497.585,56410
1580591507.585,56410
1580591517.585,56410
1580591527.585,56410
1580591537.589,56410
1580591547.585,56410
1580591557.585,56410
1580591567.585,56410
1580591577.587,56410
1580591587.585,56410
1580591597.585,56410
1580591607.585,56410
1580591617.585,56411
1580591627.585,56411
1580591637.585,56411
1580591647.585,56411
1580591657.585,56411
1580591667.586,56411
1580591677.585,56411
1580591687.585,56411
1580591697.585,56411
1580591707.585,56411
1580591717.585,56411
1580591727.585,56412
1580591737.585,56412
1580591747.585,56413
1580591757.585,56413
1580591767.585,56413
1580591777.585,56413
1580591787.585,56413
1580591797.585,56414
1580591807.585,56414
1580591817.588,56414
1580591827.585,56414
1580591837.585,56414
1580591847.585,56416
1580591857.585,56417
1580591867.585,56418
1580591877.585,56418
1580591887.586,56418
1580591897.585,56418
1580591907.585,56418
1580591917.585,56418
1580591927.585,56418
1580591937.585,56418
1580591947.585,56419
1580591957.587,56419
1580591967.585,56420
1580591977.586,56422
1580591987.586,56422
1580591997.586,56422
1580592007.587,56422
1580592017.585,56422
1580592027.585,56422
1580592037.585,56423
1580592047.586,56423
1580592057.586,56424
1580592067.585,56424
1580592077.585,56425
1580592087.585,56425
1580592097.585,56426
1580592107.586,56427
1580592117.585,56427
1580592127.585,56427
1580592137.585,56427
1580592147.585,56427
1580592157.586,56427
1580592167.585,56427
1580592177.585,56427
1580592187.585,56427
1580592197.585,56427
1580592207.585,56427
1580592217.585,56428
1580592227.586,56428
1580592237.585,56428
1580592247.585,56428
1580592257.584,56429
1580592267.585,56429
1580592277.585,56431
1580592287.585,56431
1580592297.585,56431
1580592307.585,56431
1580592317.585,56432
1580592327.585,56432
1580592337.585,56434
1580592347.585,56434
1580592357.585,56434
1580592367.585,56434
1580592377.585,56434
1580592387.585,56435
1580592397.585,56435
1580592407.585,56435
1580592417.585,56436
1580592427.585,56436
1580592437.585,56436
1580592447.585,56436
1580592457.585,56436
1580592467.585,56438
1580592477.586,56438
1580592487.585,56438
1580592497.585,56439
1580592507.586,56439
1580592517.585,56440
1580592527.585,56440
1580592537.586,56440
1580592547.585,56440
1580592557.585,56440
1580592567.585,56440
1580592577.585,56440
1580592587.585,56440
1580592597.585,56440
1580592607.585,56440
1580592617.585,56440
1580592627.585,56440
1580592637.585,56440
1580592647.585,56440
1580592657.585,56440
1580592667.585,56440
1580592677.585,56440
1580592687.585,56440
1580592697.585,56440
1580592707.585,56440
1580592717.586,56440
1580592727.585,56441
1580592737.585,56441
1580592747.585,56441
1580592757.585,56441
1580592767.585,56441
1580592777.585,56441
1580592787.585,56441
1580592797.585,56441
1580592807.585,56441
1580592817.587,56441
1580592827.585,56441
1580592837.585,56441
1580592847.585,56441
1580592857.585,56441
1580592867.585,56442
1580592877.585,56442
1580592887.585,56442
1580592897.585,56442
1580592907.585,56442
1580592917.585,56442
1580592927.585,56443
1580592937.585,56444
1580592947.585,56445
1580592957.585,56445
1580592967.588,56445
1580592977.585,56445
1580592987.588,56445
1580592997.586,56445
1580593007.585,56445
1580593017.585,56445
1580593027.585,56445
1580593037.585,56445
1580593047.585,56446
1580593057.585,56446
1580593067.585,56447
1580593077.585,56447
1580593087.585,56447
1580593097.587,56447
1580593107.585,56447
1580593117.585,56447
1580593127.585,56448
1580593137.585,56448
1580593147.585,56448
1580593157.585,56448
1580593167.586,56451
1580593177.585,56452
1580593187.585,56452
1580593197.585,56452
1580593207.585,56452
1580593217.585,56452
1580593227.585,56453
1580593237.585,56454
1580593247.585,56454
1580593257.585,56454
1580593267.585,56454
1580593277.585,56454
1580593287.586,56454
1580593297.585,56454
1580593307.585,56455
1580593317.585,56456
1580593327.585,56457
1580593337.585,56457
1580593347.585,56457
1580593357.585,56457
1580593367.585,56457
1580593377.585,56457
1580593387.585,56457
1580593397.585,56458
1580593407.585,56458
1580593417.585,56458
1580593427.587,56458
1580593437.586,56458
1580593447.585,56458
1580593457.585,56460
1580593467.585,56460
1580593477.585,56460
1580593487.585,56460
1580593497.585,56460
1580593507.586,56460
1580593517.585,56460
1580593527.585,56460
1580593537.585,56462
1580593547.586,56462
1580593557.586,56462
1580593567.585,56462
1580593577.585,56462
1580593587.585,56462
1580593597.585,56462
1580593607.585,56462
1580593617.588,56464
1580593627.586,56464
1580593637.585,56464
1580593647.585,56464
1580593657.585,56464
1580593667.585,56464
1580593677.585,56464
1580593687.586,56464
1580593697.585,56464
1580593707.585,56464
1580593717.586,56464
1580593727.585,56464
1580593737.585,56464
1580593747.585,56464
1580593757.585,56464
1580593767.585,56464
1580593777.585,56464
1580593787.585,56464
1580593797.585,56464
1580593807.585,56464
1580593817.585,56464
1580593827.585,56464
1580593837.586,56464
1580593847.585,56464
1580593857.585,56464
1580593867.586,56464
1580593877.586,56464
1580593887.585,56464
1580593897.585,56464
1580593907.585,56464
1580593917.585,56464
1580593927.585,56464
1580593937.585,56464
1580593947.587,56464
1580593957.585,56464
1580593967.585,56466
1580593977.585,56466
1580593987.585,56467
1580593997.585,56468
1580594007.585,56468
1580594017.585,56468
1580594027.585,56468
1580594037.585,56468
1580594047.585,56468
1580594057.588,56468
1580594067.585,56468
1580594077.585,56468
1580594087.585,56468
1580594097.585,56468
1580594107.585,56468
1580594117.585,56468
1580594127.585,56468
1580594137.585,56470
1580594147.585,56470
1580594157.585,56470
1580594167.585,56470
1580594177.585,56470
1580594187.585,56470
1580594197.585,56470
1580594207.585,56470
1580594217.587,56471
1580594227.585,56472
1580594237.585,56472
1580594247.586,56472
1580594257.585,56472
1580594267.585,56472
1580594277.585,56472
1580594287.585,56472
1580594297.585,56472
1580594307.585,56472
1580594317.586,56472
1580594327.585,56472
1580594337.585,56472
1580594347.585,56472
1580594357.585,56472
1580594367.585,56472
1580594377.585,56472
1580594387.585,56472
1580594397.585,56472
1580594407.585,56472
1580594417.587,56472
1580594427.586,56472
1580594437.584,56472
1580594447.586,56472
1580594457.585,56472
1580594467.585,56472
1580594477.585,56472
1580594487.585,56472
1580594497.585,56472
1580594507.585,56472
1580594517.589,56472
1580594527.586,56473
1580594537.585,56473
1580594547.585,56473
1580594557.585,56474
1580594567.585,56474
1580594577.585,56475
1580594587.587,56475
1580594597.585,56475
1580594607.585,56475
1580594617.585,56475
1580594627.585,56475
1580594637.585,56475
1580594647.585,56476
1580594657.585,56476
1580594667.586,56476
1580594677.587,56476
1580594687.586,56476
1580594697.585,56476
1580594707.585,56476
1580594717.585,56476
1580594727.585,56476
