epoch,value
1580534434.428,55636
1580534444.404,55636
1580534454.404,55636
1580534464.404,55636
1580534474.405,55636
1580534484.405,55636
1580534494.404,55636
1580534504.404,55636
1580534514.404,55636
1580534524.404,55636
1580534534.406,55636
1580534544.404,55636
1580534554.404,55636
1580534564.404,55636
1580534574.404,55636
1580534584.404,55636
1580534594.404,55636
1580534604.404,55636
1580534614.404,55636
1580534624.404,55636
1580534634.404,55636
1580534644.404,55636
1580534654.404,55636
1580534664.404,55636
1580534674.404,55636
1580534684.404,55636
1580534694.404,55636
1580534704.404,55638
1580534714.408,55638
1580534724.404,55638
1580534734.406,55638
1580534744.404,55638
1580534754.404,55638
1580534764.404,55638
1580534774.404,55638
1580534784.404,55638
1580534794.404,55638
1580534804.406,55638
1580534814.404,55638
1580534824.405,55638
1580534834.404,55638
1580534844.404,55638
1580534854.404,55638
1580534864.404,55638
1580534874.404,55638
1580534884.404,55638
1580534894.404,55638
1580534904.404,55638
1580534914.404,55638
1580534924.405,55638
1580534934.404,55638
1580534944.405,55638
1580534954.404,55638
1580534964.404,55638
1580534974.404,55638
1580534984.404,55638
1580534994.404,55638
1580535004.404,55638
1580535014.404,55638
1580535024.404,55638
1580535034.404,55638
1580535044.405,55638
1580535054.404,55638
1580535064.404,55638
1580535074.404,55638
1580535084.404,55638
1580535094.404,55638
1580535104.404,55638
1580535114.404,55638
1580535124.404,55638
1580535134.404,55638
1580535144.404,55638
1580535154.404,55638
1580535164.404,55638
1580535174.404,55638
1580535184.406,55638
1580535194.405,55638
1580535204.404,55638
1580535214.404,55638
1580535224.404,55638
1580535234.406,55638
1580535244.404,55638
1580535254.404,55638
1580535264.404,55638
1580535274.404,55638
1580535284.404,55638
1580535294.405,55638
1580535304.404,55638
1580535314.404,55638
1580535324.406,55638
1580535334.404,55638
1580535344.404,55638
1580535354.404,55638
1580535364.404,55638
1580535374.404,55638
1580535384.404,55638
1580535394.404,55639
1580535404.406,55640
1580535414.405,55640
1580535424.405,55640
1580535434.405,55640
1580535444.404,55640
1580535454.404,55640
1580535464.404,55640
1580535474.404,55641
1580535484.404,55641
1580535494.405,55641
1580535504.404,55641
1580535514.404,55641
1580535524.405,55641
1580535534.407,55641
1580535544.404,55641
1580535554.404,55641
1580535564.404,55641
1580535574.404,55643
1580535584.404,55643
1580535594.404,55643
1580535604.404,55643
1580535614.404,55643
1580535624.407,55643
1580535634.404,55643
1580535644.405,55643
1580535654.405,55643
1580535664.404,55643
1580535674.404,55643
1580535684.404,55643
1580535694.405,55643
1580535704.404,55644
1580535714.404,55645
1580535724.404,55645
1580535734.404,55645
1580535744.404,55646
1580535754.404,55650
1580535764.404,55651
1580535774.404,55651
1580535784.404,55652
1580535794.404,55653
1580535804.406,55654
1580535814.404,55654
1580535824.404,55654
1580535834.404,55654
1580535844.404,55654
1580535854.405,55654
1580535864.405,55654
1580535874.404,55654
1580535884.405,55654
1580535894.404,55654
1580535904.404,55654
1580535914.404,55654
1580535924.404,55654
1580535934.405,55654
1580535944.406,55654
1580535954.404,55654
1580535964.404,55655
1580535974.404,55655
1580535984.404,55655
1580535994.404,55655
1580536004.404,55655
1580536014.404,55655
1580536024.404,55655
1580536034.404,55655
1580536044.404,55655
1580536054.404,55655
1580536064.405,55655
1580536074.405,55655
1580536084.404,55655
1580536094.404,55655
1580536104.405,55655
1580536114.404,55655
1580536124.404,55655
1580536134.404,55655
1580536144.404,55655
1580536154.404,55655
1580536164.404,55655
1580536174.404,55655
1580536184.406,55655
1580536194.405,55656
1580536204.404,55656
1580536214.404,55656
1580536224.408,55656
1580536234.404,55656
1580536244.404,55656
1580536254.404,55656
1580536264.404,55656
1580536274.404,55656
1580536284.404,55656
1580536294.404,55656
1580536304.404,55656
1580536314.404,55656
1580536324.404,55656
1580536334.404,55657
1580536344.404,55657
1580536354.404,55657
1580536364.404,55658
1580536374.404,55658
1580536384.404,55658
1580536394.405,55658
1580536404.405,55658
1580536414.404,55658
1580536424.404,55658
1580536434.404,55658
1580536444.404,55658
1580536454.404,55658
1580536464.404,55658
1580536474.404,55658
1580536484.404,55658
1580536494.404,55658
1580536504.405,55658
1580536514.404,55658
1580536524.405,55658
1580536534.404,55658
1580536544.404,55658
1580536554.404,55658
1580536564.404,55658
1580536574.404,55658
1580536584.404,55658
1580536594.407,55658
1580536604.404,55658
1580536614.405,55658
1580536624.404,55658
1580536634.405,55658
1580536644.405,55658
1580536654.404,55658
1580536664.404,55658
1580536674.404,55658
1580536684.404,55658
1580536694.405,55658
1580536704.405,55658
1580536714.404,55658
1580536724.404,55658
1580536734.404,55658
1580536744.404,55658
1580536754.404,55658
1580536764.404,55658
1580536774.404,55658
1580536784.404,55659
1580536794.407,55659
1580536804.404,55659
1580536814.404,55659
1580536824.404,55659
1580536834.406,55659
1580536844.404,55659
1580536854.404,55659
1580536864.406,55659
1580536874.404,55659
1580536884.406,55659
1580536894.405,55659
1580536904.405,55659
1580536914.404,55659
1580536924.404,55659
1580536934.404,55659
1580536944.404,55659
1580536954.404,55659
1580536964.404,55659
1580536974.404,55659
1580536984.404,55659
1580536994.404,55659
1580537004.404,55659
1580537014.404,55659
1580537024.404,55659
1580537034.404,55659
1580537044.405,55659
1580537054.404,55660
1580537064.404,55660
1580537074.404,55660
1580537084.404,55660
1580537094.404,55660
1580537104.404,55660
1580537114.405,55660
1580537124.407,55660
1580537134.407,55660
1580537144.404,55660
1580537154.404,55660
1580537164.404,55660
1580537174.404,55660
1580537184.405,55660
1580537194.404,55660
1580537204.404,55660
1580537214.404,55660
1580537224.404,55660
1580537234.404,55660
1580537244.404,55660
1580537254.404,55660
1580537264.404,55660
1580537274.404,55661
1580537284.404,55661
1580537294.404,55662
1580537304.404,55662
1580537314.404,55662
1580537324.404,55662
1580537334.404,55662
1580537344.404,55662
1580537354.404,55662
1580537364.404,55662
1580537374.405,55662
1580537384.404,55662
1580537394.404,55664
1580537404.404,55664
1580537414.405,55664
1580537424.404,55664
1580537434.404,55664
1580537444.404,55664
1580537454.404,55664
1580537464.404,55664
1580537474.404,55664
1580537484.405,55664
1580537494.404,55664
1580537504.404,55666
1580537514.408,55666
1580537524.404,55667
1580537534.404,55667
1580537544.404,55667
1580537554.404,55667
1580537564.404,55667
1580537574.404,55668
1580537584.404,55668
1580537594.404,55668
1580537604.404,55670
1580537614.405,55670
1580537624.404,55670
1580537634.404,55670
1580537644.407,55670
1580537654.405,55670
1580537664.404,55672
1580537674.404,55672
1580537684.404,55672
1580537694.404,55672
1580537704.405,55672
1580537714.407,55674
1580537724.406,55674
1580537734.404,55675
1580537744.406,55675
1580537754.405,55677
1580537764.404,55677
1580537774.404,55677
1580537784.404,55677
1580537794.404,55677
1580537804.406,55677
1580537814.404,55678
1580537824.404,55678
1580537834.404,55678
1580537844.404,55679
1580537854.406,55680
1580537864.405,55680
1580537874.404,55682
1580537884.405,55683
1580537894.404,55683
1580537904.407,55683
1580537914.404,55683
1580537924.404,55684
1580537934.404,55684
1580537944.404,55684
1580537954.404,55684
1580537964.404,55685
1580537974.404,55685
1580537984.405,55685
1580537994.406,55685
1580538004.404,55685
1580538014.408,55685
1580538024.404,55685
1580538034.404,55685
1580538044.404,55685
1580538054.404,55686
1580538064.406,55687
1580538074.404,55687
1580538084.405,55687
1580538094.404,55687
1580538104.404,55687
1580538114.404,55687
1580538124.404,55687
1580538134.404,55687
1580538144.404,55688
1580538154.404,55688
1580538164.404,55688
1580538174.405,55688
1580538184.404,55688
1580538194.404,55688
1580538204.404,55688
1580538214.404,55688
1580538224.404,55688
1580538234.405,55688
1580538244.404,55688
1580538254.406,55688
1580538264.406,55688
1580538274.405,55688
1580538284.406,55688
1580538294.405,55688
1580538304.404,55688
1580538314.404,55688
1580538324.404,55689
1580538334.405,55689
1580538344.404,55689
1580538354.404,55689
1580538364.404,55689
1580538374.404,55689
1580538384.405,55689
1580538394.404,55689
1580538404.404,55689
1580538414.404,55689
1580538424.404,55689
1580538434.404,55689
1580538444.404,55689
1580538454.404,55691
1580538464.404,55692
1580538474.404,55692
1580538484.404,55692
1580538494.404,55692
1580538504.405,55692
1580538514.406,55692
1580538524.405,55693
1580538534.404,55693
1580538544.405,55693
1580538554.406,55693
1580538564.404,55693
1580538574.404,55693
1580538584.407,55693
1580538594.404,55693
1580538604.404,55693
1580538614.404,55693
1580538624.404,55693
1580538634.404,55693
1580538644.404,55693
1580538654.404,55693
1580538664.404,55693
1580538674.404,55693
1580538684.404,55693
1580538694.404,55693
1580538704.405,55693
1580538714.408,55693
1580538724.408,55693
1580538734.404,55693
1580538744.404,55693
1580538754.404,55693
1580538764.405,55693
1580538774.404,55695
1580538784.404,55696
1580538794.404,55696
1580538804.404,55696
1580538814.404,55696
1580538824.404,55696
1580538834.404,55696
1580538844.404,55696
1580538854.404,55696
1580538864.404,55696
1580538874.404,55696
1580538884.404,55696
1580538894.404,55696
1580538904.404,55696
1580538914.405,55696
1580538924.404,55697
1580538934.404,55697
1580538944.405,55697
1580538954.404,55697
1580538964.404,55697
1580538974.404,55697
1580538984.404,55697
1580538994.405,55697
1580539004.404,55697
1580539014.405,55697
1580539024.404,55697
1580539034.404,55697
1580539044.404,55697
1580539054.404,55697
1580539064.404,55697
1580539074.404,55697
1580539084.404,55697
1580539094.407,55697
1580539104.405,55697
1580539114.404,55697
1580539124.407,55698
1580539134.404,55698
1580539144.405,55698
1580539154.404,55698
1580539164.404,55698
1580539174.404,55698
1580539184.404,55698
1580539194.404,55698
1580539204.404,55698
1580539214.407,55698
1580539224.405,55698
1580539234.405,55698
1580539244.404,55698
1580539254.404,55698
1580539264.405,55698
1580539274.404,55698
1580539284.404,55699
1580539294.405,55700
1580539304.404,55700
1580539314.404,55700
1580539324.404,55700
1580539334.404,55700
1580539344.404,55700
1580539354.404,55700
1580539364.404,55702
1580539374.406,55702
1580539384.404,55702
1580539394.404,55702
1580539404.404,55702
1580539414.404,55702
1580539424.404,55702
1580539434.404,55702
1580539444.404,55702
1580539454.404,55703
1580539464.404,55704
1580539474.404,55704
1580539484.404,55704
1580539494.404,55704
1580539504.404,55704
1580539514.404,55704
1580539524.404,55704
1580539534.404,55704
1580539544.404,55704
1580539554.404,55704
1580539564.406,55705
1580539574.404,55705
1580539584.404,55705
1580539594.404,55706
1580539604.404,55706
1580539614.404,55706
1580539624.404,55706
1580539634.404,55706
1580539644.404,55706
1580539654.404,55706
1580539664.404,55706
1580539674.405,55706
1580539684.404,55706
1580539694.404,55706
1580539704.404,55706
1580539714.405,55706
1580539724.405,55706
1580539734.404,55706
1580539744.404,55706
1580539754.404,55706
1580539764.405,55707
1580539774.404,55708
1580539784.404,55708
1580539794.404,55708
1580539804.404,55708
1580539814.405,55708
1580539824.406,55708
1580539834.405,55708
1580539844.404,55708
1580539854.404,55708
1580539864.404,55708
1580539874.404,55708
1580539884.404,55708
1580539894.404,55709
1580539904.404,55711
1580539914.405,55711
1580539924.404,55712
1580539934.404,55712
1580539944.404,55712
1580539954.404,55712
1580539964.404,55712
1580539974.405,55712
1580539984.404,55712
1580539994.404,55712
1580540004.406,55712
1580540014.404,55713
1580540024.404,55713
1580540034.404,55713
1580540044.404,55713
1580540054.405,55713
1580540064.404,55713
1580540074.404,55713
1580540084.407,55713
1580540094.405,55713
1580540104.404,55713
1580540114.404,55713
1580540124.404,55713
1580540134.405,55713
1580540144.404,55713
1580540154.404,55713
1580540164.404,55713
1580540174.404,55713
1580540184.404,55713
1580540194.404,55713
1580540204.404,55713
1580540214.404,55715
1580540224.406,55715
1580540234.404,55715
1580540244.405,55715
1580540254.404,55715
1580540264.404,55715
1580540274.404,55715
1580540284.404,55715
1580540294.406,55715
1580540304.404,55715
1580540314.404,55715
1580540324.404,55715
1580540334.404,55715
1580540344.404,55715
1580540354.404,55715
1580540364.404,55715
1580540374.404,55715
1580540384.404,55715
1580540394.404,55715
1580540404.406,55715
1580540414.404,55716
1580540424.404,55716
1580540434.407,55716
1580540444.405,55716
1580540454.404,55716
1580540464.404,55717
1580540474.404,55718
1580540484.404,55719
1580540494.404,55720
1580540504.404,55720
1580540514.406,55720
1580540524.404,55721
1580540534.407,55721
1580540544.406,55721
1580540554.404,55721
1580540564.404,55721
1580540574.407,55721
1580540584.404,55721
1580540594.404,55721
1580540604.404,55722
1580540614.404,55723
1580540624.404,55724
1580540634.404,55726
1580540644.405,55726
1580540654.404,55726
1580540664.405,55726
1580540674.404,55726
1580540684.405,55726
1580540694.404,55726
1580540704.404,55726
1580540714.404,55726
1580540724.404,55726
1580540734.404,55726
1580540744.404,55727
1580540754.404,55727
1580540764.404,55727
1580540774.404,55727
1580540784.404,55727
1580540794.404,55727
1580540804.404,55727
1580540814.404,55727
1580540824.404,55729
1580540834.404,55730
1580540844.408,55730
1580540854.404,55730
1580540864.404,55730
1580540874.404,55730
1580540884.404,55730
1580540894.404,55730
1580540904.404,55730
1580540914.404,55730
1580540924.406,55730
1580540934.406,55730
1580540944.404,55730
1580540954.405,55730
1580540964.404,55730
1580540974.404,55730
1580540984.404,55730
1580540994.404,55730
1580541004.404,55730
1580541014.404,55730
1580541024.404,55730
1580541034.404,55730
1580541044.405,55730
1580541054.404,55730
1580541064.404,55730
1580541074.404,55730
1580541084.404,55730
1580541094.404,55730
1580541104.405,55731
1580541114.404,55731
1580541124.404,55731
1580541134.407,55731
1580541144.404,55731
1580541154.404,55731
1580541164.404,55731
1580541174.404,55731
1580541184.404,55731
1580541194.404,55731
1580541204.404,55731
1580541214.408,55731
1580541224.404,55731
1580541234.405,55731
1580541244.404,55731
1580541254.404,55731
1580541264.404,55732
1580541274.404,55732
1580541284.404,55733
1580541294.404,55733
1580541304.404,55735
1580541314.404,55735
1580541324.405,55735
1580541334.407,55735
1580541344.404,55735
1580541354.404,55735
1580541364.404,55735
1580541374.404,55735
1580541384.404,55735
1580541394.404,55735
1580541404.404,55735
1580541414.404,55735
1580541424.404,55736
1580541434.404,55737
1580541444.404,55737
1580541454.405,55737
1580541464.404,55737
1580541474.404,55737
1580541484.404,55737
1580541494.404,55737
1580541504.404,55737
1580541514.405,55737
1580541524.404,55737
1580541534.404,55737
1580541544.404,55737
1580541554.404,55737
1580541564.404,55737
1580541574.407,55737
1580541584.404,55738
1580541594.404,55738
1580541604.407,55738
1580541614.404,55738
1580541624.405,55738
1580541634.404,55738
1580541644.404,55738
1580541654.405,55738
1580541664.405,55738
1580541674.405,55738
1580541684.404,55738
1580541694.404,55738
1580541704.405,55740
1580541714.404,55740
1580541724.405,55740
1580541734.404,55740
1580541744.404,55740
1580541754.404,55740
1580541764.404,55740
1580541774.404,55740
1580541784.404,55740
1580541794.404,55740
1580541804.404,55740
1580541814.404,55740
1580541824.404,55740
1580541834.404,55740
1580541844.404,55740
1580541854.404,55740
1580541864.404,55740
1580541874.404,55740
1580541884.404,55740
1580541894.405,55740
1580541904.406,55740
1580541914.404,55740
1580541924.404,55740
1580541934.409,55740
1580541944.404,55740
1580541954.404,55740
1580541964.404,55740
1580541974.407,55740
1580541984.404,55740
1580541994.404,55740
1580542004.405,55740
1580542014.404,55741
1580542024.404,55741
1580542034.405,55741
1580542044.404,55741
1580542054.404,55741
1580542064.404,55741
1580542074.405,55741
1580542084.407,55741
1580542094.406,55741
1580542104.404,55741
1580542114.404,55741
1580542124.405,55741
1580542134.404,55741
1580542144.404,55741
1580542154.406,55741
1580542164.404,55741
1580542174.404,55741
1580542184.406,55741
1580542194.404,55741
1580542204.404,55741
1580542214.405,55741
1580542224.404,55741
1580542234.404,55741
1580542244.404,55741
1580542254.404,55741
1580542264.406,55741
1580542274.404,55741
1580542284.404,55741
1580542294.404,55741
1580542304.404,55741
1580542314.404,55741
1580542324.405,55741
1580542334.404,55741
1580542344.404,55741
1580542354.404,55741
1580542364.404,55741
1580542374.404,55741
1580542384.404,55741
1580542394.404,55741
1580542404.404,55741
1580542414.405,55741
1580542424.404,55741
1580542434.405,55741
1580542444.404,55741
1580542454.404,55742
1580542464.404,55742
1580542474.404,55742
1580542484.404,55742
1580542494.404,55742
1580542504.404,55742
1580542514.405,55742
1580542524.404,55742
1580542534.404,55742
1580542544.404,55742
1580542554.406,55742
1580542564.404,55742
1580542574.404,55742
1580542584.404,55742
1580542594.404,55742
