epoch,value
1579795398.157,236974
1579795408.138,236975
1579795418.139,236975
1579795428.137,236976
1579795438.137,236977
1579795448.137,236978
1579795458.137,236979
1579795468.137,236979
1579795478.137,236979
1579795488.137,236979
1579795498.137,236979
1579795508.137,236979
1579795518.137,236982
1579795528.137,236983
1579795538.137,236984
1579795548.137,236984
1579795558.137,236984
1579795568.137,236984
1579795578.137,236984
1579795588.138,236985
1579795598.138,236987
1579795608.137,236988
1579795618.137,236988
1579795628.137,236988
1579795638.137,236989
1579795648.137,236990
1579795658.137,236992
1579795668.137,236992
1579795678.138,236993
1579795688.138,236993
1579795698.138,236993
1579795708.137,236993
1579795718.137,236993
1579795728.137,236993
1579795738.138,236993
1579795748.138,236995
1579795758.137,236995
1579795768.137,236996
1579795778.137,236997
1579795788.138,236997
1579795798.137,236998
1579795808.139,236998
1579795818.137,236999
1579795828.137,237000
1579795838.137,237000
1579795848.137,237000
1579795858.137,237000
1579795868.137,237000
1579795878.137,237001
1579795888.137,237002
1579795898.137,237003
1579795908.137,237005
1579795918.137,237005
1579795928.137,237005
1579795938.137,237006
1579795948.137,237007
1579795958.137,237007
1579795968.137,237007
1579795978.138,237008
1579795988.137,237009
1579795998.137,237010
1579796008.137,237011
1579796018.137,237011
1579796028.137,237011
1579796038.137,237011
1579796048.137,237012
1579796058.137,237014
1579796068.139,237014
1579796078.137,237015
1579796088.137,237016
1579796098.137,237016
1579796108.137,237016
1579796118.137,237017
1579796128.137,237020
1579796138.138,237020
1579796148.137,237020
1579796158.137,237023
1579796168.138,237023
1579796178.138,237024
1579796188.137,237024
1579796198.137,237026
1579796208.137,237027
1579796218.137,237028
1579796228.137,237028
1579796238.137,237028
1579796248.137,237028
1579796258.137,237029
1579796268.137,237030
1579796278.137,237030
1579796288.138,237032
1579796298.137,237032
1579796308.141,237033
1579796318.137,237033
1579796328.137,237033
1579796338.137,237034
1579796348.137,237034
1579796358.137,237035
1579796368.137,237035
1579796378.137,237035
1579796388.137,237036
1579796398.137,237036
1579796408.137,237036
1579796418.137,237038
1579796428.137,237038
1579796438.137,237040
1579796448.137,237040
1579796458.137,237041
1579796468.137,237041
1579796478.137,237041
1579796488.137,237042
1579796498.137,237042
1579796508.140,237042
1579796518.137,237045
1579796528.137,237047
1579796538.137,237048
1579796548.137,237050
1579796558.137,237052
1579796568.137,237053
1579796578.137,237054
1579796588.137,237054
1579796598.137,237054
1579796608.137,237054
1579796618.137,237054
1579796628.137,237054
1579796638.137,237055
1579796648.137,237055
1579796658.137,237056
1579796668.137,237057
1579796678.137,237057
1579796688.137,237058
1579796698.138,237058
1579796708.137,237058
1579796718.137,237058
1579796728.137,237060
1579796738.137,237060
1579796748.137,237060
1579796758.137,237060
1579796768.137,237062
1579796778.137,237062
1579796788.138,237062
1579796798.137,237064
1579796808.137,237064
1579796818.137,237064
1579796828.137,237065
1579796838.137,237065
1579796848.137,237066
1579796858.137,237067
1579796868.137,237068
1579796878.138,237068
1579796888.137,237068
1579796898.137,237068
1579796908.137,237070
1579796918.137,237071
1579796928.137,237072
1579796938.137,237072
1579796948.137,237072
1579796958.137,237074
