epoch,value
1579786909.767,50704
1579786919.747,50704
1579786929.747,50705
1579786939.747,50705
1579786949.747,50706
1579786959.747,50706
1579786969.747,50706
1579786979.747,50706
1579786989.747,50706
1579786999.747,50706
1579787009.747,50707
1579787019.747,50707
1579787029.747,50708
1579787039.747,50708
1579787049.747,50712
1579787059.747,50712
1579787069.747,50713
1579787079.747,50713
1579787089.747,50714
1579787099.747,50714
1579787109.747,50714
1579787119.747,50714
1579787129.747,50714
1579787139.747,50714
1579787149.747,50714
1579787159.747,50714
1579787169.747,50714
1579787179.747,50714
1579787189.747,50714
1579787199.747,50714
1579787209.747,50714
1579787219.747,50714
1579787229.749,50714
1579787239.747,50714
1579787249.748,50714
1579787259.747,50714
1579787269.749,50714
1579787279.747,50714
1579787289.747,50714
1579787299.747,50714
1579787309.747,50714
1579787319.747,50714
1579787329.747,50714
1579787339.747,50714
1579787349.747,50714
1579787359.747,50714
1579787369.747,50716
1579787379.747,50717
1579787389.748,50719
1579787399.747,50719
1579787409.749,50719
1579787419.747,50719
1579787429.747,50720
1579787439.747,50720
1579787449.747,50720
1579787459.747,50721
1579787469.747,50721
1579787479.747,50721
1579787489.747,50721
1579787499.747,50721
1579787509.747,50721
1579787519.747,50721
1579787529.747,50721
1579787539.747,50721
1579787549.747,50721
1579787559.747,50721
1579787569.747,50721
1579787579.747,50721
1579787589.749,50721
1579787599.747,50722
1579787609.747,50722
1579787619.747,50722
1579787629.747,50722
1579787639.747,50724
1579787649.747,50724
1579787659.749,50724
1579787669.747,50725
1579787679.747,50725
1579787689.747,50725
1579787699.747,50725
1579787709.747,50725
1579787719.747,50725
1579787729.748,50725
1579787739.747,50725
1579787749.748,50725
1579787759.748,50725
1579787769.747,50725
1579787779.747,50725
1579787789.749,50725
1579787799.747,50725
1579787809.747,50725
1579787819.747,50725
1579787829.749,50725
1579787839.747,50725
1579787849.747,50725
1579787859.747,50725
1579787869.747,50725
1579787879.747,50725
1579787889.747,50725
1579787899.747,50725
1579787909.747,50725
1579787919.747,50725
1579787929.747,50725
1579787939.748,50725
1579787949.747,50725
1579787959.747,50726
1579787969.747,50726
1579787979.748,50728
1579787989.747,50728
1579787999.747,50728
1579788009.747,50728
1579788019.747,50728
1579788029.747,50728
1579788039.747,50728
1579788049.751,50728
1579788059.747,50728
1579788069.747,50728
1579788079.747,50728
1579788089.747,50728
1579788099.747,50728
1579788109.747,50728
1579788119.747,50728
1579788129.747,50729
1579788139.747,50729
1579788149.747,50729
1579788159.747,50729
1579788169.747,50729
1579788179.747,50729
1579788189.747,50729
1579788199.747,50729
1579788209.747,50729
1579788219.748,50729
1579788229.747,50729
1579788239.747,50729
1579788249.747,50729
1579788259.747,50729
1579788269.747,50729
1579788279.747,50729
1579788289.747,50729
1579788299.747,50729
1579788309.747,50729
1579788319.747,50729
1579788329.747,50730
1579788339.747,50730
1579788349.749,50730
1579788359.747,50730
1579788369.747,50730
1579788379.748,50730
1579788389.748,50730
1579788399.747,50730
1579788409.747,50730
1579788419.747,50730
1579788429.748,50730
1579788439.747,50730
1579788449.747,50730
1579788459.747,50730
1579788469.747,50730
