epoch,value
1579933497.430,8068
1579933507.411,8068
1579933517.410,8068
1579933527.411,8068
1579933537.409,8068
1579933547.409,8068
1579933557.409,8068
1579933567.409,8068
1579933577.409,8068
1579933587.409,8068
1579933597.409,8068
1579933607.409,8068
1579933617.409,8068
1579933627.409,8068
1579933637.409,8068
1579933647.411,8068
1579933657.409,8068
1579933667.409,8068
1579933677.409,8068
1579933687.409,8068
1579933697.410,8068
1579933707.410,8068
1579933717.410,8068
1579933727.410,8068
1579933737.409,8068
1579933747.409,8068
1579933757.409,8068
1579933767.409,8068
1579933777.409,8068
1579933787.409,8068
1579933797.410,8068
1579933807.409,8068
1579933817.409,8068
1579933827.409,8068
1579933837.409,8068
1579933847.409,8068
1579933857.409,8068
1579933867.412,8068
1579933877.409,8068
1579933887.411,8068
1579933897.409,8068
1579933907.409,8068
1579933917.410,8068
1579933927.409,8068
1579933937.409,8068
1579933947.409,8068
1579933957.412,8068
1579933967.409,8068
1579933977.409,8068
1579933987.409,8068
1579933997.409,8068
1579934007.409,8068
1579934017.410,8068
1579934027.409,8068
1579934037.410,8068
1579934047.409,8068
1579934057.410,8068
1579934067.409,8068
1579934077.409,8068
1579934087.409,8068
1579934097.409,8068
1579934107.409,8068
1579934117.410,8070
1579934127.409,8070
1579934137.409,8070
1579934147.409,8070
1579934157.410,8070
1579934167.412,8070
1579934177.409,8070
1579934187.410,8070
1579934197.410,8070
1579934207.409,8070
1579934217.409,8070
1579934227.409,8070
1579934237.409,8070
1579934247.409,8070
1579934257.409,8070
1579934267.409,8070
1579934277.409,8070
1579934287.410,8070
1579934297.409,8070
1579934307.410,8070
1579934317.409,8070
1579934327.410,8070
1579934337.409,8070
1579934347.409,8070
1579934357.409,8070
1579934367.409,8070
1579934377.409,8070
1579934387.409,8070
1579934397.409,8072
1579934407.410,8073
1579934417.411,8073
1579934427.409,8073
1579934437.409,8073
1579934447.409,8073
1579934457.411,8073
1579934467.409,8074
1579934477.411,8074
1579934487.409,8074
1579934497.409,8074
1579934507.409,8074
1579934517.409,8074
1579934527.409,8074
1579934537.409,8074
1579934547.409,8074
1579934557.409,8074
1579934567.409,8074
1579934577.411,8074
1579934587.409,8074
1579934597.410,8074
1579934607.409,8074
1579934617.409,8074
1579934627.409,8074
1579934637.409,8074
1579934647.409,8074
1579934657.409,8074
1579934667.409,8074
1579934677.409,8074
1579934687.412,8074
1579934697.409,8074
1579934707.409,8074
1579934717.409,8074
1579934727.409,8074
1579934737.409,8074
1579934747.409,8074
1579934757.409,8074
1579934767.409,8074
1579934777.409,8074
1579934787.409,8074
1579934797.409,8074
1579934807.409,8074
1579934817.409,8074
1579934827.409,8074
1579934837.409,8074
1579934847.409,8074
1579934857.409,8074
1579934867.411,8074
1579934877.409,8074
1579934887.409,8074
1579934897.409,8074
1579934907.410,8074
1579934917.409,8074
1579934927.409,8074
1579934937.409,8074
1579934947.409,8074
1579934957.409,8074
1579934967.411,8074
1579934977.410,8074
1579934987.409,8074
1579934997.409,8074
1579935007.410,8074
1579935017.409,8074
1579935027.409,8074
1579935037.409,8074
1579935047.409,8074
1579935057.409,8074
1579935067.409,8074
1579935077.409,8074
1579935087.409,8074
1579935097.409,8074
1579935107.409,8074
1579935117.410,8074
1579935127.409,8074
1579935137.409,8074
1579935147.409,8074
1579935157.410,8074
1579935167.409,8074
1579935177.409,8074
1579935187.409,8074
1579935197.410,8074
1579935207.409,8074
1579935217.409,8074
1579935227.409,8074
1579935237.409,8074
1579935247.409,8074
1579935257.409,8074
1579935267.409,8074
1579935277.409,8074
1579935287.410,8074
1579935297.409,8074
1579935307.409,8074
1579935317.409,8074
1579935327.409,8074
1579935337.409,8074
1579935347.409,8074
1579935357.410,8074
1579935367.409,8074
1579935377.410,8074
1579935387.410,8074
1579935397.409,8074
1579935407.409,8074
1579935417.412,8074
1579935427.409,8074
1579935437.409,8074
1579935447.409,8074
1579935457.409,8074
1579935467.409,8074
1579935477.409,8074
1579935487.409,8074
1579935497.409,8074
1579935507.410,8074
1579935517.410,8074
1579935527.411,8074
1579935537.409,8074
1579935547.409,8074
1579935557.409,8074
1579935567.409,8074
1579935577.412,8076
1579935587.409,8076
1579935597.409,8076
1579935607.409,8076
1579935617.409,8076
1579935627.410,8076
1579935637.409,8076
1579935647.409,8076
1579935657.409,8076
1579935667.409,8076
1579935677.409,8076
1579935687.409,8076
1579935697.410,8076
1579935707.409,8076
1579935717.409,8076
1579935727.409,8076
1579935737.409,8076
1579935747.409,8076
1579935757.409,8076
1579935767.409,8076
1579935777.409,8076
1579935787.410,8076
1579935797.409,8076
1579935807.409,8076
1579935817.409,8076
1579935827.410,8076
1579935837.409,8076
1579935847.409,8076
1579935857.409,8076
1579935867.409,8076
1579935877.409,8076
1579935887.410,8076
1579935897.409,8076
1579935907.410,8076
1579935917.409,8076
1579935927.409,8080
1579935937.409,8080
1579935947.409,8080
1579935957.409,8080
1579935967.409,8080
1579935977.409,8080
1579935987.409,8080
1579935997.409,8080
1579936007.409,8080
1579936017.409,8080
1579936027.409,8080
1579936037.409,8080
1579936047.409,8080
1579936057.409,8080
1579936067.409,8080
1579936077.409,8080
1579936087.409,8080
1579936097.410,8080
1579936107.409,8080
1579936117.409,8080
1579936127.409,8080
1579936137.409,8080
1579936147.412,8080
1579936157.409,8080
1579936167.409,8080
1579936177.409,8080
1579936187.409,8080
1579936197.411,8080
1579936207.409,8080
1579936217.409,8080
1579936227.409,8080
1579936237.409,8080
1579936247.409,8080
1579936257.409,8082
