epoch,value
1580431531.256,0
1580431541.256,0
1580431551.256,0
1580431561.256,0
1580431571.256,0
1580431581.256,0
1580431591.256,0
1580431601.256,0
1580431611.256,0
1580431621.256,0
1580431631.256,0
1580431641.256,0
1580431651.256,0
1580431661.256,1
1580431671.256,1
1580431681.256,1
1580431691.256,1
1580431701.256,1
1580431711.256,1
1580431721.256,1
1580431731.256,1
1580431741.256,1
1580431751.256,1
1580431761.256,1
1580431771.256,1
1580431781.256,1
1580431791.256,1
1580431801.256,1
1580431811.256,2
1580431821.257,2
1580431831.256,2
1580431841.256,2
1580431851.256,2
1580431861.256,2
1580431871.256,2
1580431881.256,2
1580431891.256,2
1580431901.256,2
1580431911.258,2
1580431921.256,3
1580431931.256,3
1580431941.256,3
1580431951.256,3
1580431961.256,3
1580431971.258,3
1580431981.256,3
1580431991.256,3
1580432001.256,3
1580432011.256,3
1580432021.256,3
1580432031.256,3
1580432041.261,3
1580432051.256,3
1580432061.256,3
1580432071.256,3
1580432081.256,3
1580432091.256,3
1580432101.256,4
1580432111.261,4
1580432121.256,4
1580432131.256,4
1580432141.256,4
1580432151.256,4
1580432161.256,4
1580432171.256,4
1580432181.256,4
1580432191.256,4
1580432201.256,4
1580432211.257,4
1580432221.256,4
1580432231.256,4
1580432241.256,4
1580432251.256,4
1580432261.256,4
1580432271.256,4
1580432281.256,4
1580432291.256,4
1580432301.256,4
1580432311.256,4
1580432321.261,4
1580432331.256,4
1580432341.256,4
1580432351.256,4
1580432361.256,4
1580432371.256,4
1580432381.256,4
1580432391.256,4
1580432401.256,5
1580432411.256,5
1580432421.256,5
1580432431.256,5
1580432441.256,5
1580432451.256,5
1580432461.256,5
1580432471.256,5
1580432481.256,5
1580432491.256,5
1580432501.256,5
1580432511.256,5
1580432521.256,5
1580432531.256,5
1580432541.256,5
1580432551.256,5
1580432561.256,5
1580432571.256,5
1580432581.256,6
1580432591.256,6
1580432601.256,6
1580432611.256,6
1580432621.256,6
1580432631.256,6
1580432641.256,6
1580432651.256,6
1580432661.256,6
1580432671.256,6
1580432681.256,6
1580432691.256,6
1580432701.257,6
1580432711.256,6
1580432721.256,6
1580432731.261,6
1580432741.256,6
1580432751.256,6
1580432761.256,6
1580432771.256,6
1580432781.256,6
1580432791.256,6
1580432801.256,7
1580432811.256,7
1580432821.256,7
1580432831.256,7
1580432841.256,7
1580432851.256,7
1580432861.256,7
1580432871.256,7
1580432881.256,7
1580432891.256,7
1580432901.256,7
1580432911.256,7
1580432921.256,7
1580432931.256,7
1580432941.256,7
1580432951.256,7
1580432961.256,7
1580432971.256,7
1580432981.256,7
1580432991.256,7
1580433001.256,7
1580433011.256,7
1580433021.256,7
1580433031.256,7
1580433041.256,7
1580433051.256,7
1580433061.256,7
1580433071.256,7
1580433081.257,7
1580433091.256,7
1580433101.256,7
1580433111.256,8
1580433121.256,8
1580433131.256,8
1580433141.256,8
1580433151.256,8
1580433161.256,8
1580433171.256,8
1580433181.256,8
1580433191.256,8
1580433201.256,8
1580433211.256,8
1580433221.256,8
1580433231.256,8
1580433241.256,8
1580433251.256,8
1580433261.256,8
1580433271.256,8
1580433281.256,8
1580433291.256,8
1580433301.256,8
1580433311.256,8
1580433321.256,8
1580433331.256,8
1580433341.257,8
1580433351.256,8
1580433361.256,9
1580433371.256,9
1580433381.256,9
1580433391.256,9
1580433401.256,9
1580433411.256,9
1580433421.256,9
1580433431.256,9
1580433441.256,9
1580433451.256,9
1580433461.256,9
1580433471.256,9
1580433481.260,9
1580433491.256,9
1580433501.256,10
1580433511.256,10
1580433521.256,10
1580433531.256,10
1580433541.256,10
1580433551.256,10
1580433561.256,10
1580433571.256,10
1580433581.256,10
1580433591.256,10
1580433601.256,10
1580433611.256,10
1580433621.256,10
1580433631.256,10
1580433641.256,10
1580433651.261,10
1580433661.256,10
1580433671.256,10
1580433681.256,10
1580433691.256,10
1580433701.256,10
1580433711.261,10
1580433721.256,10
1580433731.256,10
1580433741.256,10
1580433751.256,10
1580433761.257,10
1580433771.256,10
1580433781.259,10
1580433791.256,10
1580433801.256,10
1580433811.256,11
1580433821.256,11
1580433831.256,11
1580433841.256,11
1580433851.256,11
1580433861.256,11
1580433871.256,11
1580433881.256,11
1580433891.256,11
1580433901.260,11
1580433911.256,11
1580433921.256,11
1580433931.256,11
1580433941.257,11
1580433951.256,11
1580433961.256,11
1580433971.256,11
1580433981.256,11
1580433991.256,11
1580434001.256,11
1580434011.256,11
1580434021.256,11
1580434031.256,11
1580434041.256,12
1580434051.256,12
1580434061.256,12
1580434071.256,12
1580434081.256,12
1580434091.256,12
1580434101.256,12
1580434111.256,12
1580434121.256,12
1580434131.256,12
1580434141.256,12
1580434151.256,12
1580434161.256,12
1580434171.256,12
1580434181.256,12
1580434191.256,12
1580434201.256,12
1580434211.256,12
1580434221.256,13
1580434231.256,13
1580434241.260,13
1580434251.256,13
1580434261.256,13
1580434271.256,13
1580434281.256,13
1580434291.256,13
1580434301.256,13
1580434311.256,13
1580434321.256,13
1580434331.256,13
1580434341.256,13
1580434351.256,13
1580434361.256,13
1580434371.261,13
1580434381.256,13
1580434391.256,13
1580434401.256,13
1580434411.256,13
1580434421.256,14
1580434431.256,14
1580434441.256,14
1580434451.256,14
1580434461.256,14
1580434471.256,14
1580434481.256,14
1580434491.256,14
1580434501.257,14
1580434511.256,14
1580434521.256,14
1580434531.256,14
1580434541.256,14
1580434551.256,14
1580434561.256,14
1580434571.256,14
1580434581.257,14
1580434591.256,14
1580434601.256,14
1580434611.256,14
1580434621.256,14
1580434631.256,14
1580434641.256,14
1580434651.256,14
1580434661.256,15
1580434671.257,15
1580434681.256,15
1580434691.256,15
1580434701.256,15
1580434711.256,15
1580434721.256,15
1580434731.257,15
1580434741.256,15
1580434751.256,15
1580434761.256,15
1580434771.256,15
1580434781.256,15
1580434791.256,15
1580434801.256,15
1580434811.256,15
1580434821.256,15
1580434831.256,15
1580434841.256,15
1580434851.256,15
1580434861.256,15
1580434871.256,16
1580434881.256,16
1580434891.256,16
1580434901.256,16
1580434911.256,16
1580434921.256,16
1580434931.256,16
1580434941.256,16
1580434951.256,16
1580434961.256,16
1580434971.256,16
1580434981.256,16
1580434991.256,16
1580435001.256,16
1580435011.256,16
1580435021.256,16
1580435031.256,16
1580435041.256,16
1580435051.256,16
1580435061.256,16
1580435071.256,16
1580435081.256,16
1580435091.256,16
1580435101.256,17
1580435111.256,17
1580435121.256,17
1580435131.256,17
1580435141.256,17
1580435151.256,17
1580435161.256,17
1580435171.256,17
1580435181.256,17
1580435191.256,17
1580435201.256,17
1580435211.256,17
1580435221.256,17
1580435231.256,17
1580435241.256,17
1580435251.256,17
1580435261.256,17
1580435271.256,17
1580435281.256,17
1580435291.256,17
1580435301.256,17
1580435311.256,17
1580435321.256,17
1580435331.256,17
1580435341.256,17
1580435351.256,17
1580435361.256,18
1580435371.256,18
1580435381.256,18
1580435391.256,18
1580435401.256,18
1580435411.256,18
1580435421.256,18
1580435431.256,18
1580435441.256,18
1580435451.256,18
1580435461.256,18
1580435471.256,18
1580435481.256,18
1580435491.256,18
1580435501.256,18
1580435511.256,18
1580435521.256,18
1580435531.256,18
1580435541.256,18
1580435551.256,18
1580435561.256,18
1580435571.256,18
1580435581.256,18
1580435591.256,18
1580435601.259,18
1580435611.256,18
1580435621.256,18
1580435631.256,18
1580435641.256,18
1580435651.256,18
1580435661.256,19
1580435671.256,19
1580435681.256,19
1580435691.256,19
1580435701.256,19
1580435711.256,19
1580435721.256,19
1580435731.256,19
1580435741.256,19
1580435751.256,19
1580435761.256,19
1580435771.256,19
1580435781.256,19
1580435791.256,19
1580435801.256,19
1580435811.261,19
1580435821.256,19
1580435831.256,19
1580435841.256,20
1580435861.261,20
1580435871.256,20
1580435881.256,20
1580435891.256,20
1580435901.256,20
1580435911.256,20
1580435921.256,20
1580435931.256,20
1580435941.259,20
1580435951.256,20
1580435961.256,20
1580435971.256,20
1580435981.256,20
1580435991.256,20
1580436001.256,20
1580436011.256,20
1580436021.256,20
1580436031.256,20
1580436041.256,20
1580436051.256,20
1580436061.256,20
1580436071.256,20
1580436081.256,21
1580436091.256,21
1580436101.258,21
1580436111.256,21
1580436121.256,21
1580436131.256,21
1580436141.256,21
1580436151.256,21
1580436161.256,21
1580436171.256,21
1580436181.256,21
1580436191.256,21
1580436201.256,21
1580436211.256,21
1580436221.256,21
1580436231.256,21
1580436241.256,21
1580436251.256,21
1580436261.256,21
1580436271.256,21
1580436281.256,21
1580436291.256,21
1580436301.256,21
1580436311.256,21
1580436321.256,21
1580436331.256,21
1580436341.256,21
1580436351.256,21
1580436361.256,21
1580436371.256,21
1580436381.256,21
1580436391.256,21
1580436401.256,22
1580436411.256,22
1580436421.256,22
1580436431.256,22
1580436441.256,22
1580436451.256,22
1580436461.256,22
1580436471.256,22
1580436481.256,22
1580436491.256,22
1580436501.256,22
1580436511.256,22
1580436521.256,22
1580436531.257,22
1580436541.256,22
1580436551.256,22
1580436561.256,22
1580436571.256,23
1580436581.256,23
1580436591.256,23
1580436601.256,23
1580436611.256,23
1580436621.256,23
1580436631.256,23
1580436641.256,23
1580436651.256,23
1580436661.256,23
1580436671.256,23
1580436681.256,23
1580436691.256,23
1580436701.256,23
1580436721.256,23
1580436731.256,23
1580436741.256,23
1580436751.256,23
1580436761.256,23
1580436771.256,23
1580436781.256,23
1580436791.256,23
1580436801.256,23
1580436811.256,23
1580436821.256,24
1580436831.256,24
1580436841.256,24
1580436851.256,24
1580436861.256,24
1580436871.256,24
1580436881.256,24
1580436891.256,24
1580436901.256,24
1580436921.256,24
1580436931.256,24
1580436941.256,24
1580436951.256,24
1580436961.256,25
1580436971.256,25
1580436981.256,25
1580436991.256,25
1580437001.256,25
1580437011.256,25
1580437021.256,25
1580437031.256,25
1580437041.256,25
1580437051.256,25
1580437061.256,25
1580437071.256,25
1580437081.256,25
1580437091.256,25
1580437101.256,26
1580437111.256,26
1580437121.256,26
1580437131.256,26
1580437141.257,26
1580437151.256,26
1580437161.256,26
1580437171.256,26
1580437181.256,26
1580437191.256,26
1580437201.256,26
1580437211.256,26
1580437221.256,26
1580437231.256,26
1580437241.256,26
1580437251.256,26
1580437261.256,26
1580437271.256,26
1580437281.256,26
1580437291.256,27
1580437301.256,27
1580437311.256,27
1580437321.261,27
1580437331.256,27
1580437341.256,27
1580437351.256,27
1580437361.256,27
1580437381.256,27
1580437391.256,27
1580437401.256,27
1580437411.256,27
1580437421.256,27
1580437431.256,27
1580437441.256,27
1580437451.256,27
1580437461.256,28
1580437471.256,28
1580437481.256,28
1580437491.256,28
1580437501.256,28
1580437511.256,28
1580437521.256,28
1580437531.256,28
1580437541.256,28
1580437551.256,28
1580437561.256,28
1580437571.256,28
1580437581.256,28
1580437591.256,28
1580437601.256,28
1580437611.256,28
1580437621.256,28
1580437631.256,28
1580437641.256,29
1580437651.256,29
1580437661.256,29
1580437671.256,29
1580437681.256,29
1580437691.256,29
1580437701.256,29
1580437711.256,29
1580437721.256,29
1580437731.256,29
1580437741.256,29
1580437751.256,29
1580437761.256,30
1580437771.256,30
1580437781.256,30
1580437791.256,30
1580437801.256,30
1580437811.256,30
1580437821.256,30
1580437831.256,30
1580437841.256,30
1580437851.256,30
1580437861.256,30
1580437871.256,30
1580437881.256,30
1580437891.256,30
1580437901.256,30
1580437911.256,30
1580437931.256,30
1580437941.256,30
1580437951.256,31
1580437961.256,31
1580437971.256,31
1580437981.256,31
1580437991.256,31
1580438001.256,31
1580438011.256,31
1580438021.261,31
1580438031.256,31
1580438041.256,31
1580438061.256,31
1580438071.256,31
1580438081.256,31
1580438091.256,31
1580438101.256,31
1580438111.256,31
1580438121.256,31
1580438131.256,32
1580438141.261,32
1580438151.256,32
1580438161.256,32
1580438171.256,32
1580438181.256,32
1580438191.256,32
1580438201.256,32
1580438211.256,32
1580438221.256,32
1580438231.256,32
1580438241.256,32
1580438251.256,33
1580438261.256,33
1580438271.256,33
1580438281.256,33
1580438291.256,33
1580438301.256,33
1580438311.256,33
1580438321.256,33
1580438331.256,33
1580438341.256,33
1580438351.256,33
1580438361.256,33
1580438371.256,33
1580438381.256,33
1580438391.257,33
1580438401.256,33
1580438411.256,33
1580438421.256,33
1580438431.256,34
1580438441.256,34
1580438451.256,34
1580438461.256,34
1580438471.256,34
1580438481.256,34
1580438491.256,34
1580438501.256,34
1580438511.256,34
1580438521.256,34
1580438531.256,34
1580438541.256,34
1580438551.256,34
1580438561.256,34
1580438571.256,34
1580438581.256,34
1580438591.256,34
1580438601.256,34
1580438611.256,34
1580438621.256,34
1580438631.256,34
1580438641.256,34
1580438651.256,34
1580438661.256,34
1580438671.256,34
1580438681.256,34
1580438691.256,34
1580438701.256,34
1580438711.256,35
1580438721.256,35
1580438731.256,35
1580438741.256,35
1580438751.256,35
1580438761.256,35
1580438771.257,35
1580438781.256,35
1580438791.256,35
1580438801.256,35
1580438811.256,35
1580438821.256,35
1580438831.256,35
1580438841.261,35
1580438851.256,35
1580438861.256,35
1580438871.256,35
1580438881.256,35
1580438891.256,35
1580438901.256,35
1580438911.256,35
1580438921.256,36
1580438931.261,36
1580438941.256,36
