epoch,value
1580414472.534,373070
1580414482.514,373070
1580414492.513,373070
1580414502.514,373071
1580414512.514,373071
1580414522.514,373072
1580414532.514,373088
1580414542.514,373117
1580414552.514,373129
1580414562.514,373175
1580414572.514,373223
1580414582.513,373257
1580414592.514,373298
1580414602.514,373330
1580414612.513,373376
1580414622.514,373417
1580414632.515,373468
1580414642.513,373500
1580414652.514,373561
1580414662.514,373610
1580414672.514,373654
1580414682.515,373709
1580414692.514,373751
1580414702.515,373802
1580414712.514,373848
1580414722.514,373890
1580414732.515,373933
1580414742.514,373976
1580414752.514,374024
1580414762.514,374068
1580414772.514,374120
1580414782.514,374176
1580414792.514,374219
1580414802.514,374261
1580414812.513,374296
1580414822.514,374338
1580414832.514,374390
1580414842.514,374435
1580414852.514,374480
1580414862.514,374524
1580414872.513,374562
1580414882.513,374599
1580414892.513,374650
1580414902.514,374689
1580414912.513,374735
1580414922.515,374782
1580414932.513,374838
1580414942.514,374879
1580414952.514,374922
1580414962.514,374973
1580414972.514,375026
1580414982.514,375079
1580414992.514,375128
1580415002.515,375176
1580415012.514,375213
1580415022.514,375268
1580415032.514,375313
1580415042.514,375363
1580415052.516,375403
1580415062.514,375454
1580415072.514,375498
1580415082.514,375544
1580415092.514,375594
1580415102.514,375633
1580415112.514,375682
1580415122.513,375739
1580415132.514,375795
1580415142.516,375846
1580415152.514,375890
1580415162.514,375939
1580415172.514,375993
1580415182.513,376038
1580415192.514,376069
1580415202.513,376109
1580415212.514,376156
1580415222.514,376200
1580415232.514,376240
1580415242.513,376278
1580415252.515,376323
1580415262.514,376362
1580415272.514,376408
1580415282.513,376449
1580415292.514,376492
1580415302.514,376541
1580415312.514,376580
1580415322.514,376622
1580415332.514,376663
1580415342.514,376698
1580415352.513,376749
1580415362.514,376804
1580415372.514,376850
1580415382.514,376901
1580415392.513,376941
1580415402.514,376990
1580415412.514,377032
1580415422.513,377086
1580415432.514,377117
1580415442.514,377170
1580415452.514,377225
1580415462.515,377279
1580415472.514,377346
1580415482.514,377400
1580415492.513,377461
1580415502.514,377490
1580415512.514,377523
1580415522.513,377576
1580415532.514,377622
1580415542.514,377656
1580415552.514,377692
1580415562.513,377726
1580415572.513,377765
1580415582.514,377796
1580415592.514,377838
1580415602.514,377883
1580415612.514,377919
1580415622.513,377956
1580415632.514,378002
1580415642.514,378028
1580415652.515,378099
1580415662.515,378148
1580415672.514,378192
1580415682.514,378232
1580415692.514,378280
1580415702.515,378313
1580415712.513,378358
1580415722.514,378402
1580415732.514,378445
1580415742.513,378498
1580415752.514,378538
1580415762.514,378585
1580415772.514,378625
1580415782.513,378673
1580415792.514,378714
1580415802.514,378759
1580415812.514,378807
1580415822.514,378857
1580415832.514,378906
1580415842.513,378944
1580415852.514,378987
1580415862.514,379024
1580415872.514,379065
1580415882.514,379110
1580415892.514,379158
1580415902.513,379198
1580415912.514,379237
1580415922.514,379278
1580415932.513,379320
1580415942.515,379363
1580415952.514,379408
1580415962.514,379448
1580415972.514,379494
1580415982.514,379549
1580415992.513,379597
1580416002.514,379647
1580416012.516,379695
1580416022.514,379739
1580416032.514,379799
1580416042.514,379841
1580416052.513,379884
1580416062.514,379932
1580416072.514,379979
1580416082.514,380026
1580416092.514,380072
1580416102.514,380110
1580416112.514,380152
1580416122.514,380186
1580416132.514,380224
1580416142.514,380268
1580416152.516,380311
1580416162.514,380354
1580416172.514,380398
1580416182.514,380435
1580416192.513,380467
1580416202.514,380510
1580416212.514,380558
1580416222.513,380598
1580416232.514,380634
1580416242.514,380681
1580416252.514,380712
1580416262.514,380740
1580416272.514,380783
1580416282.514,380828
1580416292.514,380872
1580416302.514,380916
1580416312.513,380958
1580416322.514,380997
1580416332.514,381040
1580416342.514,381086
1580416352.514,381134
1580416362.513,381172
1580416372.515,381223
1580416382.514,381260
1580416392.514,381306
1580416402.515,381343
1580416412.513,381369
1580416422.515,381406
1580416432.514,381448
1580416442.514,381494
1580416452.514,381539
1580416462.515,381584
1580416472.513,381620
1580416482.514,381662
1580416492.515,381708
1580416502.513,381751
1580416512.513,381792
1580416522.514,381832
1580416532.513,381876
1580416542.513,381922
1580416552.514,381969
1580416562.514,382019
1580416572.514,382062
1580416582.513,382102
1580416592.514,382144
1580416602.513,382191
1580416612.514,382248
1580416622.514,382292
1580416632.517,382331
1580416642.514,382381
1580416652.514,382422
1580416662.518,382474
1580416672.513,382519
1580416682.514,382560
1580416692.514,382601
1580416702.514,382651
1580416712.513,382700
1580416722.516,382745
1580416732.516,382785
1580416742.514,382824
1580416752.514,382872
1580416762.513,382911
1580416772.513,382949
1580416782.514,382988
1580416792.515,383038
1580416802.513,383083
1580416812.514,383083
1580416822.514,383083
1580416832.513,383084
1580416842.514,383084
1580416852.513,383084
1580416862.514,383084
1580416872.514,383085
1580416882.514,383085
1580416892.514,383085
1580416902.513,383085
1580416912.515,383085
1580416922.516,383085
1580416932.514,383085
1580416942.514,383086
1580416952.514,383087
1580416962.516,383087
1580416972.514,383087
1580416982.514,383087
1580416992.514,383087
1580417002.514,383087
1580417012.514,383087
1580417022.513,383088
1580417032.513,383088
1580417042.513,383090
1580417052.515,383090
1580417062.514,383090
1580417072.514,383090
1580417082.514,383092
1580417092.514,383094
1580417102.514,383094
1580417112.513,383094
1580417122.514,383094
1580417132.514,383096
1580417142.514,383097
1580417152.513,383097
1580417162.513,383098
1580417172.515,383100
1580417182.513,383100
1580417192.513,383100
1580417202.514,383101
1580417212.513,383101
1580417222.514,383101
1580417232.514,383101
1580417242.513,383103
1580417252.514,383103
1580417262.514,383104
1580417272.514,383104
1580417282.513,383105
1580417292.514,383106
1580417302.514,383107
1580417312.515,383107
1580417322.514,383107
1580417332.514,383107
1580417342.513,383107
1580417352.514,383108
1580417362.515,383109
1580417372.514,383110
1580417382.514,383111
1580417392.515,383111
1580417402.514,383112
1580417412.514,383112
1580417422.514,383113
1580417432.514,383113
1580417442.514,383114
1580417452.513,383114
1580417462.514,383115
1580417472.515,383115
1580417482.513,383117
1580417492.516,383118
1580417502.514,383120
1580417512.514,383122
1580417522.513,383122
1580417532.513,383123
1580417542.514,383125
1580417552.514,383125
1580417562.513,383125
1580417572.514,383125
1580417582.515,383125
1580417592.514,383126
1580417602.514,383126
1580417612.515,383126
1580417622.513,383127
1580417632.514,383129
1580417642.514,383129
1580417652.513,383129
1580417662.514,383129
1580417672.513,383129
1580417682.514,383130
1580417692.514,383132
1580417702.515,383132
1580417712.514,383133
1580417722.514,383134
1580417732.514,383135
1580417742.513,383135
1580417752.513,383135
1580417762.514,383136
1580417772.514,383137
1580417782.514,383138
1580417792.514,383138
1580417802.514,383139
1580417812.514,383139
1580417822.515,383139
1580417832.514,383140
1580417842.515,383141
1580417852.514,383141
1580417862.514,383142
1580417872.514,383142
1580417882.514,383142
1580417892.514,383144
1580417902.514,383146
1580417912.513,383146
1580417922.514,383146
1580417932.514,383146
1580417942.513,383146
1580417952.513,383146
1580417962.514,383147
1580417972.514,383150
1580417982.514,383151
1580417992.513,383151
1580418002.514,383152
1580418012.517,383152
1580418022.514,383152
1580418032.513,383152
1580418042.514,383152
1580418052.514,383152
1580418062.513,383152
1580418072.514,383153
1580418082.514,383153
1580418092.513,383153
1580418102.514,383154
1580418112.514,383156
1580418122.514,383158
1580418132.515,383158
1580418142.514,383160
1580418152.513,383160
1580418162.514,383164
1580418172.513,383164
1580418182.514,383164
1580418192.513,383164
1580418202.515,383165
1580418212.513,383165
1580418222.513,383166
1580418232.514,383166
1580418242.514,383166
1580418252.514,383166
1580418262.514,383168
1580418272.514,383168
1580418282.514,383169
1580418292.515,383169
1580418302.513,383169
1580418312.514,383169
1580418322.513,383169
1580418332.514,383169
1580418342.514,383170
1580418352.514,383171
1580418362.514,383171
1580418372.513,383173
1580418382.514,383173
1580418392.516,383173
1580418402.513,383174
1580418412.515,383176
1580418422.514,383178
1580418432.513,383178
1580418442.514,383178
1580418452.516,383178
1580418462.514,383178
1580418472.513,383179
1580418482.514,383179
1580418492.514,383179
1580418502.515,383180
1580418512.514,383182
1580418522.514,383182
1580418532.514,383182
1580418542.513,383183
1580418552.514,383183
1580418562.514,383185
1580418572.514,383185
1580418582.514,383185
1580418592.515,383186
1580418602.514,383186
1580418612.514,383187
1580418622.514,383188
1580418632.514,383189
1580418642.513,383189
1580418652.514,383189
1580418662.514,383190
1580418672.515,383190
1580418682.514,383191
1580418692.513,383191
1580418702.514,383192
1580418712.513,383192
1580418722.514,383192
1580418732.513,383192
1580418742.514,383192
1580418752.514,383192
1580418762.514,383192
1580418772.513,383194
1580418782.515,383194
1580418792.514,383195
1580418802.514,383196
1580418812.513,383196
1580418822.513,383196
1580418832.515,383196
1580418842.514,383197
1580418852.514,383198
1580418862.514,383201
1580418872.513,383203
1580418882.514,383203
1580418892.514,383203
1580418902.513,383204
1580418912.514,383205
1580418922.514,383206
1580418932.513,383206
1580418942.513,383206
1580418952.516,383208
1580418962.515,383208
1580418972.516,383208
1580418982.514,383209
1580418992.513,383211
1580419002.514,383211
1580419012.514,383211
1580419022.513,383211
1580419032.514,383211
1580419042.514,383212
1580419052.514,383212
1580419062.513,383212
1580419072.514,383212
1580419082.514,383212
1580419092.514,383212
1580419102.513,383212
1580419112.513,383212
1580419122.514,383214
1580419132.514,383214
1580419142.513,383215
1580419152.514,383217
1580419162.513,383218
1580419172.513,383218
1580419182.514,383218
1580419192.513,383218
1580419202.513,383218
1580419212.514,383220
1580419222.514,383221
1580419232.514,383223
1580419242.516,383224
1580419252.514,383225
1580419262.514,383226
1580419272.514,383227
1580419282.514,383229
1580419292.514,383230
1580419302.514,383230
1580419312.513,383230
1580419322.513,383230
1580419332.514,383230
1580419342.516,383231
1580419352.514,383232
1580419362.513,383233
1580419372.513,383233
1580419382.514,383234
1580419392.516,383234
1580419402.514,383234
1580419412.516,383234
1580419422.514,383234
1580419432.514,383235
1580419442.514,383236
1580419452.514,383236
1580419462.513,383238
1580419472.514,383239
1580419482.514,383240
1580419492.514,383241
1580419502.514,383242
1580419512.513,383243
1580419522.514,383243
1580419532.516,383244
1580419542.514,383244
1580419552.514,383244
1580419562.513,383244
1580419572.514,383244
1580419582.515,383245
1580419592.513,383245
1580419602.514,383245
1580419612.515,383246
1580419622.513,383246
1580419632.514,383246
1580419642.514,383247
1580419652.513,383247
1580419662.515,383248
1580419672.514,383248
1580419682.513,383248
1580419692.514,383252
1580419702.515,383252
1580419712.513,383252
1580419722.513,383252
1580419732.514,383253
1580419742.514,383254
1580419752.513,383256
1580419762.514,383256
1580419772.513,383256
1580419782.515,383256
1580419792.514,383260
1580419802.514,383260
1580419812.513,383262
1580419822.514,383263
1580419832.514,383264
1580419842.514,383265
1580419852.513,383266
1580419862.514,383266
1580419872.514,383266
1580419882.513,383266
1580419892.514,383266
1580419902.513,383268
1580419912.514,383270
1580419922.514,383270
1580419932.514,383272
1580419942.513,383273
1580419952.513,383274
1580419962.516,383275
1580419972.513,383276
1580419982.514,383276
1580419992.514,383276
1580420002.514,383276
1580420012.513,383276
1580420022.514,383277
1580420032.513,383278
1580420042.514,383278
1580420052.513,383279
1580420062.514,383280
1580420072.515,383280
1580420082.514,383280
1580420092.514,383281
1580420102.513,383281
1580420112.514,383282
1580420122.513,383282
1580420132.514,383282
1580420142.514,383284
1580420152.514,383284
1580420162.513,383284
1580420172.514,383284
1580420182.513,383284
1580420192.513,383285
1580420202.514,383287
1580420212.516,383288
1580420222.513,383288
1580420232.513,383290
1580420242.514,383290
1580420252.513,383290
1580420262.514,383290
1580420272.514,383292
1580420282.515,383292
1580420292.514,383293
1580420302.513,383293
1580420312.514,383294
1580420322.514,383294
1580420332.516,383294
1580420342.513,383295
1580420352.513,383296
1580420362.516,383297
1580420372.513,383297
1580420382.514,383298
1580420392.514,383299
1580420402.515,383300
1580420412.513,383300
1580420422.514,383301
1580420432.514,383302
1580420442.513,383303
1580420452.513,383304
1580420462.514,383305
1580420472.514,383305
1580420482.514,383305
1580420492.513,383305
1580420502.513,383306
1580420512.513,383306
1580420522.513,383306
1580420532.514,383307
1580420542.515,383307
1580420552.514,383307
1580420562.513,383307
1580420572.513,383307
1580420582.513,383308
1580420592.514,383308
1580420602.514,383308
1580420612.514,383309
1580420622.513,383309
1580420632.515,383309
1580420642.513,383310
1580420652.513,383310
1580420662.514,383311
1580420672.515,383314
1580420682.514,383314
1580420692.516,383316
1580420702.513,383316
1580420712.513,383316
1580420722.514,383316
1580420732.516,383317
1580420742.514,383317
1580420752.513,383317
1580420762.513,383318
1580420772.514,383318
1580420782.514,383318
1580420792.514,383319
1580420802.514,383319
1580420812.514,383320
1580420822.514,383321
1580420832.514,383321
1580420842.516,383323
1580420852.514,383323
1580420862.514,383323
1580420872.514,383324
1580420882.514,383325
1580420892.514,383325
1580420902.513,383326
1580420912.514,383328
1580420922.514,383328
1580420932.514,383330
1580420942.513,383330
1580420952.513,383330
1580420962.514,383330
1580420972.513,383330
1580420982.514,383331
1580420992.513,383331
1580421002.514,383332
1580421012.519,383334
1580421022.514,383336
1580421032.514,383337
1580421042.513,383338
1580421052.514,383339
1580421062.514,383340
1580421072.514,383341
1580421082.514,383341
1580421092.514,383341
1580421102.514,383342
1580421112.514,383344
1580421122.515,383344
1580421132.514,383346
1580421142.515,383347
1580421152.514,383348
1580421162.513,383348
1580421172.513,383348
1580421182.514,383349
1580421192.514,383350
1580421202.514,383350
1580421212.513,383350
1580421222.514,383350
1580421232.514,383350
1580421242.514,383352
1580421252.513,383352
1580421262.514,383354
1580421272.514,383356
1580421282.514,383357
1580421292.514,383359
1580421302.514,383359
1580421312.514,383361
1580421322.513,383362
1580421332.516,383362
1580421342.514,383364
1580421352.514,383366
1580421362.514,383366
1580421372.514,383366
1580421382.515,383367
1580421392.514,383367
1580421402.514,383369
1580421412.514,383370
1580421422.514,383371
1580421432.514,383371
1580421442.514,383371
1580421452.514,383372
1580421462.514,383374
1580421472.514,383376
1580421482.514,383376
1580421492.513,383376
1580421502.515,383377
1580421512.514,383379
1580421522.514,383380
1580421532.514,383380
1580421542.514,383381
1580421552.514,383381
1580421562.513,383382
1580421572.514,383382
1580421582.514,383382
1580421592.513,383382
1580421602.513,383382
1580421612.514,383382
1580421622.514,383382
1580421632.514,383383
1580421642.517,383384
1580421652.514,383385
1580421662.514,383386
1580421672.514,383386
1580421682.515,383388
1580421692.515,383388
1580421702.514,383390
1580421712.514,383390
1580421722.513,383390
1580421732.513,383390
1580421742.514,383391
1580421752.513,383391
1580421762.514,383392
1580421772.514,383394
1580421782.513,383394
1580421792.513,383395
1580421802.513,383395
1580421812.513,383395
1580421822.513,383396
1580421832.514,383396
1580421842.515,383397
1580421852.513,383397
1580421862.514,383397
1580421872.513,383397
1580421882.514,383398
1580421892.516,383400
1580421902.514,383400
1580421912.514,383401
