epoch,value
1579943684.366,273197
1579943694.348,273198
1579943704.348,273198
1579943714.348,273198
1579943724.350,273198
1579943734.349,273198
1579943744.348,273202
1579943754.350,273235
1579943764.348,273270
1579943774.348,273304
1579943784.348,273330
1579943794.348,273370
1579943804.348,273402
1579943814.348,273441
1579943824.348,273478
1579943834.348,273514
1579943844.348,273539
1579943854.350,273568
1579943864.350,273607
1579943874.348,273641
1579943884.348,273675
1579943894.348,273711
1579943904.348,273749
1579943914.348,273777
1579943924.348,273810
1579943934.348,273833
1579943944.348,273862
1579943954.348,273885
1579943964.348,273926
1579943974.348,273964
1579943984.348,274004
1579943994.348,274036
1579944004.348,274068
1579944014.348,274115
1579944024.348,274151
1579944034.349,274197
1579944044.348,274230
1579944054.351,274270
1579944064.348,274308
1579944074.348,274346
1579944084.348,274391
1579944094.348,274429
1579944104.348,274469
1579944114.348,274508
1579944124.348,274552
1579944134.348,274602
1579944144.350,274644
1579944154.348,274686
1579944164.349,274729
1579944174.349,274770
1579944184.348,274810
1579944194.349,274854
1579944204.348,274890
1579944214.348,274929
1579944224.351,274970
1579944234.348,275012
1579944244.348,275053
1579944254.350,275093
1579944264.348,275130
1579944274.348,275164
1579944284.348,275207
1579944294.348,275247
1579944304.348,275290
1579944314.349,275333
1579944324.348,275375
1579944334.348,275406
1579944344.348,275446
1579944354.348,275484
1579944364.350,275526
1579944374.350,275573
1579944384.348,275626
1579944394.348,275664
1579944404.348,275721
1579944414.348,275768
1579944424.350,275819
1579944434.348,275869
1579944444.348,275910
1579944454.348,275946
1579944464.348,275986
1579944474.348,276027
1579944484.348,276070
1579944494.348,276106
1579944504.350,276149
1579944514.349,276192
1579944524.348,276237
1579944534.348,276272
1579944544.348,276309
1579944554.348,276345
1579944564.351,276386
1579944574.350,276434
1579944584.348,276488
1579944594.348,276543
1579944604.348,276579
1579944614.348,276610
1579944624.348,276640
1579944634.348,276678
1579944644.348,276717
1579944654.350,276753
1579944664.350,276788
1579944674.348,276827
1579944684.348,276867
1579944694.349,276899
1579944704.348,276929
1579944714.348,276980
1579944724.348,277022
1579944734.348,277059
1579944744.348,277106
1579944754.348,277134
1579944764.348,277168
1579944774.348,277214
1579944784.348,277259
1579944794.348,277294
1579944804.348,277335
1579944814.348,277370
1579944824.348,277415
1579944834.348,277450
1579944844.348,277489
1579944854.348,277532
1579944864.348,277582
1579944874.348,277638
1579944884.352,277676
1579944894.348,277721
1579944904.348,277763
1579944914.350,277806
1579944924.348,277854
1579944934.350,277900
1579944944.348,277957
1579944954.348,277996
1579944964.348,278043
1579944974.348,278084
1579944984.348,278128
1579944994.348,278186
1579945004.348,278242
1579945014.348,278284
1579945024.349,278331
1579945034.348,278373
1579945044.350,278414
1579945054.348,278450
1579945064.348,278496
1579945074.348,278531
1579945084.348,278574
1579945094.348,278610
1579945104.348,278651
1579945114.348,278692
1579945124.348,278740
1579945134.349,278783
1579945144.348,278822
1579945154.348,278858
1579945164.348,278893
1579945174.348,278930
1579945184.348,278966
1579945194.348,279005
1579945204.348,279051
1579945214.348,279094
1579945224.350,279142
1579945234.348,279182
1579945244.348,279220
1579945254.348,279269
1579945264.348,279314
1579945274.348,279361
1579945284.348,279400
1579945294.348,279450
1579945304.348,279491
1579945314.348,279532
1579945324.348,279572
1579945334.348,279606
1579945344.348,279645
1579945354.348,279691
1579945364.348,279748
1579945374.349,279796
1579945384.348,279832
1579945394.348,279870
1579945404.349,279916
1579945414.348,279950
1579945424.348,279987
1579945434.348,280026
1579945444.348,280080
1579945454.348,280130
1579945464.348,280167
1579945474.348,280210
1579945484.348,280256
1579945494.349,280304
1579945504.348,280345
1579945514.348,280388
1579945524.348,280428
1579945534.348,280469
1579945544.348,280504
1579945554.349,280537
1579945564.348,280577
1579945574.348,280623
1579945584.348,280668
1579945594.348,280710
1579945604.349,280746
1579945614.348,280775
1579945624.348,280821
1579945634.348,280865
1579945644.350,280899
1579945654.348,280938
1579945664.348,280967
1579945674.348,281008
1579945684.348,281041
1579945694.348,281081
1579945704.352,281121
1579945714.349,281161
1579945724.348,281209
1579945734.348,281249
1579945744.348,281292
1579945754.348,281335
1579945764.348,281380
1579945774.348,281432
1579945784.348,281479
1579945794.348,281522
1579945804.348,281565
1579945814.348,281598
1579945824.348,281642
1579945834.348,281687
1579945844.348,281719
1579945854.348,281765
1579945864.349,281803
1579945874.348,281841
1579945884.348,281891
1579945894.348,281937
1579945904.349,281973
1579945914.348,282014
1579945924.348,282054
1579945934.348,282093
1579945944.348,282128
1579945954.349,282170
1579945964.348,282208
1579945974.348,282248
1579945984.348,282295
1579945994.349,282346
1579946004.348,282384
1579946014.348,282421
1579946024.350,282469
1579946034.348,282507
1579946044.348,282548
1579946054.349,282587
1579946064.348,282626
1579946074.348,282678
1579946084.348,282717
1579946094.348,282771
1579946104.351,282825
1579946114.348,282867
1579946124.349,282928
1579946134.348,282934
1579946144.349,282934
1579946154.348,282936
1579946164.348,282936
1579946174.348,282936
1579946184.350,282936
1579946194.348,282937
1579946204.349,282938
1579946214.348,282939
1579946224.348,282940
1579946234.348,282942
1579946244.349,282943
1579946254.348,282944
1579946264.348,282944
1579946274.348,282945
1579946284.350,282945
1579946294.348,282945
1579946304.348,282946
1579946314.349,282946
1579946324.349,282947
