epoch,value
1580812795.443,15023
1580812805.429,15023
1580812815.426,15023
1580812825.426,15023
1580812835.426,15023
1580812845.427,15023
1580812855.425,15023
1580812865.425,15023
1580812875.426,15023
1580812885.425,15023
1580812895.426,15023
1580812905.425,15023
1580812915.425,15023
1580812925.425,15023
1580812935.425,15023
1580812945.426,15023
1580812955.425,15023
1580812965.426,15023
1580812975.425,15023
1580812985.425,15023
1580812995.425,15023
1580813005.425,15023
1580813015.427,15023
1580813025.425,15023
1580813035.425,15023
1580813045.425,15023
1580813055.426,15023
1580813065.427,15023
1580813075.425,15023
1580813085.425,15023
1580813095.425,15023
1580813105.425,15023
1580813115.425,15023
1580813125.426,15023
1580813135.425,15023
1580813145.425,15023
1580813155.425,15023
1580813165.425,15023
1580813175.425,15023
1580813185.425,15023
1580813195.425,15023
1580813205.425,15023
1580813215.425,15023
1580813225.425,15023
1580813235.425,15023
1580813245.425,15023
1580813255.425,15025
1580813265.428,15025
1580813275.425,15025
1580813285.428,15025
1580813295.425,15025
1580813305.427,15025
1580813315.426,15025
1580813325.425,15025
1580813335.425,15025
1580813345.425,15025
1580813355.426,15025
1580813365.426,15025
1580813375.425,15025
1580813385.426,15025
1580813395.428,15025
1580813405.425,15025
1580813415.425,15025
1580813425.425,15025
1580813435.426,15025
1580813445.425,15025
1580813455.425,15025
1580813465.425,15025
1580813475.425,15025
1580813485.425,15026
1580813495.426,15026
1580813505.425,15026
1580813515.425,15026
1580813525.425,15026
1580813535.425,15026
1580813545.428,15026
1580813555.425,15026
1580813565.425,15026
1580813575.425,15026
1580813585.425,15026
1580813595.425,15026
1580813605.427,15026
1580813615.425,15026
1580813625.426,15026
1580813635.425,15026
1580813645.426,15026
1580813655.426,15026
1580813665.426,15026
1580813675.425,15026
1580813685.425,15026
1580813695.427,15026
1580813705.425,15026
1580813715.427,15026
1580813725.425,15026
1580813735.426,15026
1580813745.426,15026
1580813755.426,15026
1580813765.425,15026
1580813775.425,15026
1580813785.425,15026
1580813795.428,15026
1580813805.425,15026
1580813815.425,15026
1580813825.425,15026
1580813835.425,15026
1580813845.425,15026
1580813855.425,15026
1580813865.425,15026
1580813875.425,15026
1580813885.425,15026
1580813895.426,15026
1580813905.426,15026
1580813915.425,15026
1580813925.427,15026
1580813935.425,15026
1580813945.425,15026
1580813955.426,15026
1580813965.427,15026
1580813975.425,15027
1580813985.426,15027
1580813995.426,15027
1580814005.425,15027
1580814015.425,15027
1580814025.425,15027
1580814035.425,15027
1580814045.425,15027
1580814055.425,15027
1580814065.425,15027
1580814075.425,15027
1580814085.425,15027
1580814095.427,15027
1580814105.426,15027
1580814115.425,15027
1580814125.425,15027
1580814135.425,15027
1580814145.427,15027
1580814155.425,15027
1580814165.425,15027
1580814175.426,15028
1580814185.425,15029
1580814195.425,15030
1580814205.425,15030
1580814215.425,15031
1580814225.426,15031
1580814235.425,15031
1580814245.425,15031
1580814255.425,15031
1580814265.425,15031
1580814275.425,15031
1580814285.429,15031
1580814295.425,15031
1580814305.426,15031
1580814315.425,15031
1580814325.425,15031
1580814335.426,15031
1580814345.425,15032
