epoch,value
1580212426.936,0
1580212436.936,0
1580212446.935,0
1580212456.935,0
1580212466.935,0
1580212476.935,1
1580212486.936,1
1580212496.935,1
1580212506.935,1
1580212516.935,1
1580212526.936,2
1580212536.935,2
1580212546.935,2
1580212556.935,2
1580212566.935,2
1580212576.935,2
1580212586.935,2
1580212596.935,2
1580212606.935,2
1580212616.936,2
1580212626.935,2
1580212636.935,2
1580212646.935,2
1580212656.936,2
1580212666.935,2
1580212676.935,2
1580212686.935,2
1580212696.935,2
1580212706.935,2
1580212716.935,2
1580212726.935,2
1580212736.936,3
1580212746.937,3
1580212756.935,3
1580212766.935,3
1580212776.935,3
1580212786.935,3
1580212796.935,3
1580212806.935,3
1580212816.936,3
1580212826.935,3
1580212836.935,3
1580212846.935,3
1580212856.935,3
1580212866.935,3
1580212876.936,4
1580212886.935,4
1580212896.935,4
1580212906.936,4
1580212916.935,4
1580212926.935,4
1580212936.935,4
1580212946.935,4
1580212956.936,4
1580212966.935,4
1580212976.935,4
1580212986.935,4
1580212996.935,4
1580213006.936,4
1580213016.936,4
1580213026.936,4
1580213036.936,5
1580213046.936,5
1580213056.936,5
1580213066.935,5
1580213076.936,5
1580213086.936,5
1580213096.936,5
1580213106.936,5
1580213116.936,5
1580213126.936,5
1580213136.935,5
1580213146.935,5
1580213156.935,5
1580213166.935,5
1580213176.935,5
1580213186.936,5
1580213196.935,5
1580213206.936,5
1580213216.936,6
1580213226.935,6
1580213236.935,6
1580213246.936,6
1580213256.936,6
1580213266.936,6
1580213276.936,6
1580213286.936,6
1580213296.936,6
1580213306.936,6
1580213316.935,7
1580213326.936,7
1580213336.935,7
1580213346.935,7
1580213356.935,7
1580213366.936,7
1580213376.936,7
1580213386.935,7
1580213396.936,7
1580213406.935,7
1580213416.936,8
1580213426.935,8
1580213436.935,8
1580213446.936,8
1580213456.935,8
1580213466.936,8
1580213476.935,8
1580213486.936,8
1580213496.935,8
1580213506.935,8
1580213516.936,8
1580213526.936,9
1580213536.935,9
1580213546.935,9
1580213556.936,9
1580213566.935,9
1580213576.935,9
1580213586.935,9
1580213596.935,9
1580213606.935,9
1580213616.935,9
1580213626.935,9
1580213636.935,9
1580213646.935,10
1580213656.935,10
1580213666.936,10
1580213676.935,10
1580213686.936,10
1580213696.935,10
1580213706.936,10
1580213716.936,10
1580213726.935,10
1580213736.936,10
1580213746.935,10
1580213756.935,10
1580213766.936,10
1580213776.936,11
1580213786.939,11
1580213796.935,11
1580213806.935,11
1580213816.936,11
1580213826.936,11
1580213836.935,11
1580213846.936,11
1580213856.935,11
1580213866.936,11
1580213876.935,11
1580213886.941,11
1580213896.935,11
1580213906.937,11
1580213916.935,11
1580213926.935,11
1580213936.935,11
1580213946.935,11
1580213956.935,11
1580213966.936,12
1580213976.935,12
1580213986.935,12
1580213996.935,12
1580214006.935,12
1580214016.936,12
1580214026.935,12
1580214036.935,12
1580214046.936,13
1580214056.935,13
1580214066.935,13
1580214076.936,13
1580214086.941,13
1580214096.936,13
1580214106.935,13
1580214116.935,13
1580214126.935,13
1580214136.936,13
1580214146.936,13
1580214156.936,13
1580214166.935,13
1580214176.935,14
1580214186.935,14
1580214196.935,14
1580214206.935,14
1580214216.936,14
1580214226.935,14
1580214236.936,14
1580214246.935,14
1580214256.935,14
1580214266.935,14
1580214276.935,14
1580214286.936,14
1580214296.935,14
1580214306.935,14
1580214316.935,14
1580214326.935,14
1580214336.935,15
1580214346.936,15
1580214356.936,15
1580214366.935,15
1580214376.935,15
1580214386.935,15
1580214396.935,15
1580214406.936,15
1580214416.937,15
1580214426.936,15
1580214436.935,15
1580214446.935,15
1580214456.935,15
1580214466.935,15
1580214476.935,16
1580214486.941,16
1580214496.935,16
1580214506.935,16
1580214516.935,16
1580214526.935,16
1580214536.936,16
1580214546.935,16
1580214556.936,16
1580214566.935,16
1580214576.935,16
1580214586.936,16
1580214596.935,16
1580214606.935,16
1580214616.936,17
1580214626.935,17
1580214636.935,17
1580214646.935,17
1580214656.935,17
1580214666.935,17
1580214676.937,17
1580214686.935,17
1580214696.935,17
1580214706.936,17
1580214716.936,17
1580214726.935,18
1580214736.935,18
1580214746.935,18
1580214756.935,18
1580214766.935,18
1580214776.935,18
1580214786.935,18
1580214796.935,18
1580214806.936,18
1580214816.937,18
1580214826.935,19
1580214836.935,19
1580214846.935,19
1580214856.935,19
1580214866.935,19
1580214876.935,19
1580214886.935,19
1580214896.935,19
1580214906.935,19
1580214916.935,19
1580214926.935,19
1580214936.935,19
1580214946.935,19
1580214956.935,19
1580214966.935,20
1580214976.935,20
1580214986.935,20
1580214996.935,20
1580215006.936,20
1580215016.936,20
1580215026.935,21
1580215036.935,21
1580215046.935,21
1580215056.935,21
1580215066.935,21
1580215076.935,21
1580215086.935,21
1580215096.935,21
1580215106.935,21
1580215116.936,21
1580215126.936,21
1580215136.935,22
1580215146.935,22
1580215156.935,22
1580215166.935,22
