epoch,value
1579785128.065,50688
1579785138.047,50688
1579785148.048,50688
1579785158.047,50688
1579785168.047,50688
1579785178.049,50688
1579785188.047,50688
1579785198.047,50688
1579785208.047,50688
1579785218.047,50688
1579785228.047,50688
1579785238.047,50688
1579785248.047,50688
1579785258.050,50688
1579785268.047,50688
1579785278.047,50688
1579785288.047,50688
1579785298.047,50688
1579785308.047,50688
1579785318.048,50688
1579785328.049,50688
1579785338.047,50688
1579785348.048,50689
1579785358.047,50689
1579785368.047,50689
1579785378.047,50689
1579785388.048,50689
1579785398.047,50689
1579785408.047,50689
1579785418.048,50689
1579785428.047,50689
1579785438.048,50689
1579785448.047,50689
1579785458.047,50689
1579785468.048,50689
1579785478.047,50689
1579785488.048,50689
1579785498.048,50689
1579785508.047,50689
1579785518.047,50690
1579785528.048,50690
1579785538.047,50691
1579785548.047,50691
1579785558.047,50691
1579785568.051,50691
1579785578.047,50691
1579785588.047,50691
1579785598.047,50691
1579785608.047,50691
1579785618.047,50691
1579785628.047,50691
1579785638.049,50691
1579785648.047,50691
1579785658.047,50691
1579785668.047,50691
1579785678.047,50691
1579785688.049,50691
1579785698.047,50691
1579785708.049,50691
1579785718.051,50691
1579785728.048,50691
1579785738.047,50691
1579785748.049,50691
1579785758.047,50692
1579785768.050,50692
1579785778.049,50694
1579785788.047,50694
1579785798.047,50694
1579785808.047,50694
1579785818.047,50694
1579785828.047,50694
1579785838.049,50694
1579785848.049,50694
1579785858.047,50694
1579785868.047,50694
1579785878.047,50694
1579785888.047,50694
1579785898.048,50694
1579785908.047,50694
1579785918.048,50694
1579785928.047,50695
1579785938.047,50695
1579785948.047,50696
1579785958.047,50696
1579785968.047,50696
1579785978.047,50696
1579785988.047,50696
1579785998.047,50696
1579786008.048,50696
1579786018.047,50696
1579786028.047,50696
1579786038.047,50696
1579786048.047,50696
1579786058.047,50696
1579786068.047,50697
1579786078.047,50698
1579786088.047,50698
1579786098.047,50698
1579786108.047,50698
1579786118.048,50698
1579786128.047,50698
1579786138.048,50698
1579786148.047,50698
1579786158.047,50698
1579786168.047,50698
1579786178.047,50698
1579786188.047,50698
1579786198.047,50698
1579786208.047,50698
1579786218.049,50698
1579786228.049,50698
1579786238.047,50698
1579786248.047,50698
1579786258.048,50698
1579786268.047,50698
1579786278.047,50698
1579786288.047,50698
1579786298.047,50698
1579786308.047,50698
1579786318.047,50698
1579786328.047,50698
1579786338.047,50698
1579786348.047,50698
1579786358.047,50698
1579786368.048,50698
1579786378.047,50700
1579786388.047,50700
1579786398.047,50700
1579786408.047,50700
1579786418.047,50700
1579786428.047,50700
1579786438.051,50700
1579786448.047,50700
1579786458.047,50700
1579786468.050,50700
1579786478.047,50700
1579786488.047,50700
1579786498.048,50700
1579786508.047,50702
1579786518.047,50702
1579786528.048,50702
1579786538.047,50702
1579786548.047,50703
1579786558.047,50703
1579786568.050,50703
1579786578.048,50703
1579786588.047,50703
1579786598.047,50703
1579786608.047,50703
1579786618.049,50704
1579786628.047,50704
1579786638.049,50704
1579786648.047,50704
1579786658.047,50704
1579786668.049,50704
1579786678.047,50704
1579786688.047,50704
