epoch,value
1579801424.378,237377
1579801434.360,237377
1579801444.359,237378
1579801454.358,237379
1579801464.358,237380
1579801474.358,237380
1579801484.358,237380
1579801494.360,237380
1579801504.358,237381
1579801514.359,237382
1579801524.359,237382
1579801534.358,237382
1579801544.358,237384
1579801554.360,237384
1579801564.358,237384
1579801574.359,237384
1579801584.359,237386
1579801594.359,237386
1579801604.359,237386
1579801614.358,237387
1579801624.358,237387
1579801634.359,237387
1579801644.358,237389
1579801654.358,237390
1579801664.358,237392
1579801674.360,237392
1579801684.358,237392
1579801694.359,237394
1579801704.358,237396
1579801714.358,237396
1579801724.359,237397
1579801734.358,237397
1579801744.358,237397
1579801754.360,237397
1579801764.358,237397
1579801774.358,237397
1579801784.359,237397
1579801794.358,237398
1579801804.358,237400
1579801814.359,237401
1579801824.358,237401
1579801834.358,237402
1579801844.359,237402
1579801854.361,237403
1579801864.358,237404
1579801874.358,237404
1579801884.358,237404
1579801894.362,237404
1579801904.359,237404
1579801914.358,237407
1579801924.358,237410
1579801934.358,237411
1579801944.358,237411
1579801954.359,237411
1579801964.358,237412
1579801974.359,237412
1579801984.359,237413
1579801994.358,237414
1579802004.358,237414
1579802014.362,237414
1579802024.359,237415
1579802034.358,237415
1579802044.359,237415
1579802054.358,237416
1579802064.360,237416
1579802074.360,237416
1579802084.359,237416
1579802094.358,237417
1579802104.358,237417
1579802114.358,237417
1579802124.358,237417
1579802134.358,237418
1579802144.358,237418
1579802154.358,237420
1579802164.359,237420
1579802174.358,237421
1579802184.358,237423
1579802194.359,237424
1579802204.358,237426
1579802214.358,237426
1579802224.358,237429
1579802234.358,237430
1579802244.359,237430
1579802254.358,237431
1579802264.358,237432
1579802274.358,237434
1579802284.362,237434
1579802294.359,237434
1579802304.358,237434
1579802314.358,237434
1579802324.359,237434
1579802334.359,237434
1579802344.360,237434
1579802354.358,237436
1579802364.358,237436
1579802374.359,237436
1579802384.359,237438
1579802394.358,237438
1579802404.358,237439
1579802414.358,237439
1579802424.360,237440
1579802434.358,237440
1579802444.359,237440
1579802454.358,237440
1579802464.358,237441
1579802474.359,237442
1579802484.358,237442
1579802494.358,237443
1579802504.358,237445
1579802514.358,237445
1579802524.358,237447
1579802534.358,237448
1579802544.358,237448
1579802554.358,237449
1579802564.358,237449
1579802574.358,237449
1579802584.359,237450
1579802594.359,237451
1579802604.359,237451
1579802614.359,237452
1579802624.358,237453
1579802634.358,237454
1579802644.358,237454
1579802654.358,237454
1579802664.358,237456
1579802674.358,237457
1579802684.358,237457
1579802694.359,237458
1579802704.359,237458
1579802714.358,237458
1579802724.358,237458
1579802734.358,237460
1579802744.358,237461
1579802754.358,237461
1579802764.359,237463
1579802774.358,237464
1579802784.358,237464
1579802794.358,237464
1579802804.358,237464
1579802814.359,237464
1579802824.359,237464
1579802834.358,237464
1579802844.358,237464
1579802854.361,237464
1579802864.358,237464
1579802874.358,237465
1579802884.358,237466
1579802894.358,237468
1579802904.360,237468
1579802914.358,237469
1579802924.359,237471
1579802934.359,237471
1579802944.358,237471
1579802954.358,237471
1579802964.358,237471
1579802974.359,237471
1579802984.359,237471
