epoch,value
1579885988.471,38110
1579885998.452,38110
1579886008.452,38110
1579886018.452,38110
1579886028.452,38111
1579886038.452,38112
1579886048.452,38112
1579886058.452,38112
1579886068.452,38113
1579886078.452,38113
1579886088.452,38114
1579886098.453,38114
1579886108.452,38114
1579886118.452,38115
1579886128.452,38115
1579886138.452,38115
1579886148.452,38115
1579886158.453,38115
1579886168.452,38115
1579886178.452,38115
1579886188.452,38116
1579886198.452,38116
1579886208.452,38116
1579886218.452,38116
1579886228.452,38116
1579886238.452,38116
1579886248.452,38116
1579886258.452,38116
1579886268.452,38116
1579886278.454,38116
1579886288.452,38116
1579886298.452,38119
1579886308.452,38119
1579886318.452,38119
1579886328.453,38121
1579886338.453,38121
1579886348.452,38121
1579886358.452,38121
1579886368.452,38122
1579886378.452,38122
1579886388.452,38122
1579886398.452,38122
1579886408.453,38122
1579886418.456,38122
1579886428.452,38122
1579886438.452,38122
1579886448.452,38122
1579886458.454,38122
1579886468.452,38122
1579886478.452,38122
1579886488.452,38122
1579886498.452,38122
1579886508.452,38122
1579886518.452,38122
1579886528.452,38122
1579886538.452,38122
1579886548.452,38123
1579886558.452,38123
1579886568.454,38123
1579886578.452,38123
1579886588.452,38123
1579886598.452,38123
1579886608.452,38123
1579886618.454,38123
1579886628.452,38123
1579886638.452,38123
1579886648.452,38123
1579886658.452,38123
1579886668.452,38123
1579886678.452,38123
1579886688.453,38124
1579886698.452,38124
1579886708.452,38125
1579886718.452,38125
1579886728.455,38125
1579886738.452,38125
1579886748.454,38125
1579886758.452,38125
1579886768.453,38126
1579886778.452,38126
1579886788.453,38126
1579886798.452,38126
1579886808.452,38127
1579886818.452,38127
1579886828.453,38127
1579886838.452,38127
1579886848.452,38127
1579886858.452,38127
1579886868.452,38127
1579886878.452,38127
1579886888.452,38127
1579886898.452,38127
1579886908.452,38128
1579886918.452,38128
1579886928.452,38128
1579886938.452,38128
1579886948.452,38128
1579886958.452,38128
1579886968.452,38128
1579886978.452,38128
1579886988.452,38128
1579886998.452,38128
1579887008.452,38128
1579887018.452,38128
1579887028.453,38128
1579887038.452,38128
1579887048.453,38128
1579887058.452,38128
1579887068.453,38128
1579887078.452,38128
1579887088.452,38128
1579887098.452,38128
1579887108.453,38128
1579887118.452,38128
1579887128.454,38129
1579887138.452,38129
1579887148.452,38129
1579887158.452,38129
1579887168.452,38130
1579887178.453,38130
1579887188.452,38130
1579887198.452,38130
1579887208.452,38131
1579887218.453,38131
1579887228.452,38132
1579887238.452,38132
1579887248.452,38132
1579887258.452,38132
1579887268.452,38132
1579887278.452,38132
1579887288.452,38132
1579887298.452,38132
1579887308.454,38132
1579887318.452,38132
1579887328.453,38132
1579887338.452,38132
1579887348.452,38132
1579887358.452,38132
1579887368.454,38132
1579887378.452,38132
1579887388.452,38132
1579887398.455,38132
1579887408.455,38132
1579887418.452,38132
1579887428.452,38132
1579887438.452,38132
1579887448.456,38132
1579887458.452,38132
1579887468.452,38133
1579887478.452,38133
1579887488.452,38133
1579887498.453,38133
1579887508.452,38133
1579887518.452,38134
1579887528.452,38134
1579887538.452,38134
1579887548.452,38134
1579887558.452,38134
1579887568.452,38134
1579887578.452,38135
1579887588.453,38135
1579887598.453,38135
1579887608.454,38135
1579887618.452,38135
1579887628.452,38135
1579887638.452,38135
1579887648.454,38135
1579887658.454,38135
1579887668.453,38136
1579887678.452,38136
1579887688.454,38136
1579887698.453,38136
1579887708.452,38136
1579887718.452,38136
1579887728.452,38136
1579887738.454,38136
1579887748.452,38136
1579887758.453,38137
1579887768.452,38137
1579887778.452,38137
1579887788.454,38137
1579887798.452,38137
1579887808.455,38137
1579887818.453,38137
1579887828.452,38137
1579887838.452,38138
1579887848.452,38138
1579887858.452,38138
1579887868.452,38138
1579887878.452,38138
1579887888.452,38138
1579887898.452,38138
1579887908.452,38139
1579887918.452,38139
1579887928.452,38139
1579887938.452,38141
1579887948.452,38141
1579887958.453,38141
1579887968.452,38141
1579887978.452,38141
1579887988.452,38141
1579887998.455,38141
1579888008.454,38141
1579888018.454,38141
1579888028.453,38141
1579888038.453,38142
1579888048.454,38143
1579888058.453,38143
1579888068.452,38144
1579888078.452,38144
1579888088.453,38146
1579888098.452,38146
1579888108.452,38146
1579888118.452,38146
1579888128.452,38146
1579888138.452,38146
1579888148.452,38146
1579888158.452,38146
1579888168.452,38147
1579888178.452,38148
1579888188.453,38148
1579888198.452,38148
1579888208.453,38148
1579888218.452,38148
1579888228.452,38148
1579888238.454,38148
1579888248.452,38148
1579888258.452,38148
1579888268.452,38148
1579888278.453,38148
1579888288.452,38148
1579888298.452,38148
1579888308.452,38148
1579888318.452,38148
1579888328.452,38148
1579888338.452,38148
1579888348.452,38148
1579888358.452,38148
1579888368.452,38150
1579888378.452,38150
1579888388.453,38150
1579888398.452,38150
1579888408.452,38150
1579888418.452,38150
1579888428.453,38151
1579888438.452,38151
1579888448.452,38151
1579888458.453,38151
1579888468.452,38151
1579888478.452,38151
1579888488.453,38151
1579888498.452,38151
1579888508.454,38151
1579888518.452,38151
1579888528.452,38151
1579888538.452,38151
1579888548.452,38152
1579888558.452,38152
1579888568.452,38152
1579888578.453,38152
1579888588.452,38152
1579888598.454,38152
1579888608.452,38152
1579888618.452,38152
1579888628.452,38152
1579888638.452,38153
1579888648.452,38153
1579888658.452,38153
1579888668.452,38153
1579888678.452,38153
1579888688.452,38153
1579888698.453,38153
1579888708.452,38153
1579888718.452,38153
1579888728.452,38153
1579888738.453,38153
1579888748.452,38154
