epoch,value
1580692203.017,0
1580692213.017,0
1580692223.017,0
1580692233.017,0
1580692243.017,0
1580692253.017,0
1580692263.017,0
1580692273.017,0
1580692283.017,0
1580692293.017,0
1580692303.017,0
1580692313.017,0
1580692323.017,0
1580692333.017,0
1580692343.017,0
1580692353.017,0
1580692363.017,0
1580692373.017,0
1580692383.025,0
1580692393.017,0
1580692403.017,0
1580692413.017,0
1580692423.017,0
1580692433.017,0
1580692443.017,0
1580692453.017,0
1580692463.017,0
1580692473.017,0
1580692483.017,0
1580692493.017,0
1580692503.017,0
1580692513.017,0
1580692523.017,0
1580692533.017,0
1580692543.017,0
1580692553.017,0
1580692563.017,0
1580692573.017,0
1580692583.017,0
1580692593.017,0
1580692603.017,0
1580692613.017,0
1580692623.017,0
1580692633.017,0
1580692643.017,0
1580692653.017,0
1580692663.017,0
1580692673.017,0
1580692683.017,0
1580692693.017,0
1580692703.017,0
1580692713.017,0
1580692723.017,0
1580692733.017,0
1580692743.017,0
1580692753.017,0
1580692763.017,0
1580692773.017,0
1580692783.017,0
1580692793.017,0
1580692803.017,0
1580692813.017,0
1580692823.017,0
1580692833.017,0
1580692843.017,0
1580692853.017,0
1580692863.017,0
1580692873.017,0
1580692883.017,0
1580692893.017,0
1580692903.017,0
1580692913.017,0
1580692923.017,0
1580692933.017,0
1580692943.017,0
1580692953.017,0
1580692963.017,0
1580692973.017,0
1580692983.017,0
1580692993.017,0
1580693003.017,0
1580693013.017,0
1580693023.017,0
1580693033.017,0
1580693043.017,0
1580693053.017,0
1580693063.017,0
1580693073.017,0
1580693083.017,0
1580693093.017,0
1580693103.017,0
1580693113.017,0
1580693123.017,0
1580693133.017,0
1580693143.017,0
1580693153.017,0
1580693163.017,0
1580693173.017,0
1580693183.017,0
1580693193.017,0
1580693203.017,0
1580693213.023,0
1580693223.017,0
1580693233.017,0
1580693243.017,0
1580693253.017,0
1580693263.017,0
1580693273.017,0
1580693283.017,0
1580693293.017,0
1580693303.017,0
1580693313.017,0
1580693323.017,0
1580693333.017,0
1580693343.017,0
1580693353.017,0
1580693363.017,0
1580693373.017,0
1580693383.017,0
1580693393.017,0
1580693403.017,0
1580693413.017,0
1580693423.017,0
1580693433.017,0
1580693443.017,0
1580693453.017,0
1580693463.017,0
1580693473.017,0
1580693483.017,0
1580693493.017,0
1580693503.017,0
1580693513.017,0
1580693523.017,0
1580693533.017,0
1580693543.017,0
1580693553.017,0
1580693563.017,0
1580693573.017,0
1580693583.017,0
1580693593.017,0
1580693603.017,0
1580693613.017,1
1580693623.017,1
1580693633.017,1
1580693643.017,1
1580693653.017,1
1580693663.017,1
1580693673.017,1
1580693683.017,1
1580693693.017,1
1580693703.017,1
1580693713.017,1
1580693723.017,1
1580693733.017,1
1580693743.017,1
1580693753.017,1
1580693763.017,1
1580693773.017,1
1580693783.017,1
1580693793.017,1
1580693803.017,1
1580693813.017,1
1580693823.017,1
1580693833.017,1
1580693843.017,1
1580693853.017,1
1580693863.017,1
1580693873.017,1
1580693883.017,1
1580693893.017,1
1580693903.017,1
1580693913.017,1
1580693923.017,1
1580693933.017,1
1580693943.017,1
1580693953.017,1
1580693963.017,1
1580693973.017,1
1580693983.017,1
1580693993.017,1
1580694003.017,1
1580694013.017,1
1580694023.017,1
1580694033.017,1
1580694043.017,2
1580694053.017,2
1580694063.017,2
1580694073.017,2
1580694083.017,2
1580694093.017,2
1580694103.017,2
1580694113.017,2
1580694123.017,2
1580694133.017,2
1580694143.017,2
1580694153.017,2
1580694163.017,2
1580694173.017,2
1580694183.017,2
1580694193.017,2
1580694203.017,2
1580694213.017,2
1580694223.017,2
1580694233.017,2
1580694243.017,2
1580694253.017,2
1580694263.017,2
1580694273.017,2
1580694283.017,2
1580694293.017,2
1580694303.017,2
1580694313.017,2
1580694323.017,2
1580694333.017,2
1580694343.017,2
1580694353.017,2
1580694363.017,2
1580694373.017,2
1580694383.017,2
1580694393.017,2
1580694403.017,2
1580694413.017,2
1580694423.017,2
1580694433.017,2
1580694443.017,2
1580694453.017,2
1580694463.017,2
1580694473.017,2
1580694483.017,2
1580694493.017,2
1580694503.017,2
1580694513.017,2
1580694523.017,2
1580694533.017,2
1580694543.017,2
1580694553.017,2
1580694563.017,2
1580694573.017,2
1580694583.017,2
1580694593.017,2
1580694603.017,2
1580694613.017,2
1580694623.017,3
1580694633.017,3
1580694643.017,3
1580694653.017,3
1580694663.017,3
1580694673.017,3
1580694683.017,3
1580694693.017,3
1580694703.017,3
1580694713.017,3
1580694723.017,3
1580694733.017,3
1580694743.017,3
1580694753.017,3
1580694763.017,3
1580694773.017,3
1580694783.017,3
1580694793.017,3
1580694803.017,3
1580694813.017,3
1580694823.017,3
1580694833.017,3
1580694853.017,3
1580694863.017,3
1580694873.017,3
1580694883.017,3
1580694893.017,3
1580694903.017,3
1580694913.017,3
1580694923.017,3
1580694933.017,3
1580694943.017,3
1580694953.017,3
1580694963.017,3
1580694973.025,3
1580694983.017,3
1580694993.017,3
1580695003.017,3
1580695013.017,3
1580695023.017,3
1580695033.017,3
1580695043.017,3
1580695053.017,3
1580695063.017,3
1580695073.017,3
1580695083.017,3
1580695093.017,3
1580695103.017,3
1580695113.017,3
1580695123.017,3
1580695133.017,3
1580695143.017,3
1580695153.017,3
1580695163.017,3
1580695173.017,3
1580695183.017,3
1580695193.017,3
1580695203.017,3
1580695213.017,3
1580695223.017,3
1580695233.017,3
1580695243.017,3
1580695253.017,3
1580695263.017,3
1580695273.017,3
1580695283.017,3
1580695293.017,3
1580695303.017,3
1580695313.017,3
1580695323.017,3
1580695333.017,3
1580695343.017,3
1580695353.017,3
1580695363.017,4
1580695373.017,4
1580695383.017,4
1580695393.017,4
1580695403.017,4
1580695413.017,4
1580695423.017,4
1580695433.017,4
1580695443.017,4
1580695453.017,4
1580695463.017,4
1580695473.017,4
1580695483.017,4
1580695493.017,4
1580695503.017,4
1580695513.017,4
1580695523.017,4
1580695533.017,4
1580695543.017,4
1580695553.017,4
1580695563.017,4
1580695573.017,4
1580695583.017,4
1580695593.017,4
1580695603.017,4
1580695613.017,4
1580695623.017,4
1580695633.017,4
1580695643.017,4
1580695653.017,4
1580695663.017,4
1580695673.017,4
1580695683.017,4
1580695693.017,4
1580695703.017,4
1580695713.017,4
1580695723.017,4
1580695733.017,4
1580695743.017,4
1580695753.017,4
1580695763.017,4
1580695773.017,4
1580695783.017,4
1580695793.017,4
1580695803.017,4
1580695813.017,4
1580695823.017,4
1580695833.017,4
1580695843.017,4
1580695853.017,4
1580695863.017,4
1580695873.017,4
1580695883.017,4
1580695893.017,4
1580695903.017,4
1580695913.017,4
1580695923.017,4
1580695933.017,4
1580695943.017,4
1580695953.017,4
1580695963.017,4
1580695973.017,4
1580695983.017,4
1580695993.017,4
1580696003.017,4
1580696013.017,4
1580696023.017,4
1580696033.017,4
1580696043.017,4
1580696053.017,4
1580696063.017,4
1580696073.017,4
1580696083.017,4
1580696093.017,4
1580696103.017,4
1580696113.017,4
1580696123.017,4
1580696133.017,4
1580696143.017,4
1580696153.017,4
1580696163.017,4
1580696173.017,4
1580696183.017,4
1580696193.017,4
1580696203.017,4
1580696213.017,4
1580696223.017,4
1580696233.017,4
1580696243.017,4
1580696253.017,4
1580696263.017,4
1580696273.017,4
1580696283.017,4
1580696293.017,4
1580696313.017,4
1580696323.017,4
1580696333.017,4
1580696343.017,4
1580696353.017,4
1580696363.017,4
1580696373.017,4
1580696383.017,4
1580696393.017,4
1580696403.017,4
1580696413.017,4
1580696423.017,4
1580696433.017,4
1580696443.017,4
1580696453.017,4
1580696463.017,4
1580696473.017,4
1580696483.017,4
1580696493.017,4
1580696503.017,4
1580696513.019,5
1580696523.017,5
1580696533.017,5
1580696543.017,5
1580696553.017,5
1580696563.017,5
1580696573.017,5
1580696583.017,5
1580696593.017,5
1580696603.017,5
1580696613.017,5
1580696623.017,5
1580696633.017,5
1580696643.017,5
1580696653.017,5
1580696663.017,5
1580696673.017,5
1580696683.017,5
1580696693.017,5
1580696703.017,5
1580696713.017,5
1580696723.017,5
1580696733.017,5
1580696743.017,5
1580696753.017,5
1580696763.017,5
1580696773.017,5
1580696783.017,5
1580696793.017,5
1580696803.017,5
1580696813.017,5
1580696823.017,5
1580696833.017,5
1580696843.017,5
1580696853.017,5
1580696863.017,5
1580696873.017,5
1580696883.017,5
1580696893.017,5
1580696903.017,5
1580696913.017,5
1580696923.017,5
1580696933.017,5
1580696943.017,5
1580696953.017,5
1580696963.017,5
1580696973.017,5
1580696983.017,5
1580696993.017,5
1580697003.017,5
1580697013.017,5
1580697023.017,5
1580697033.017,5
1580697043.017,5
1580697053.017,5
1580697063.017,5
1580697073.017,5
1580697083.017,5
1580697093.017,5
1580697103.017,5
1580697113.017,5
1580697123.017,5
1580697133.017,5
1580697143.017,5
1580697153.017,5
1580697173.017,5
1580697183.017,6
1580697193.017,6
1580697203.017,6
1580697213.017,6
1580697223.017,6
1580697233.017,6
1580697243.017,6
1580697253.017,6
1580697263.017,6
1580697273.017,6
1580697283.017,6
1580697293.017,6
1580697303.017,6
1580697313.017,6
1580697323.017,6
1580697333.017,6
1580697343.017,6
1580697353.017,6
1580697363.017,6
1580697373.017,6
1580697383.017,6
1580697393.017,6
1580697403.017,6
1580697413.017,6
1580697423.017,6
1580697433.017,6
1580697443.017,6
1580697453.017,6
1580697463.025,6
1580697473.017,6
1580697483.017,6
1580697493.017,6
1580697503.017,6
1580697513.017,6
1580697523.017,6
1580697533.017,6
1580697543.017,6
1580697553.017,6
1580697563.017,6
1580697573.017,6
1580697583.017,6
1580697593.017,6
1580697603.017,6
1580697613.017,6
1580697623.017,6
1580697633.017,6
1580697643.017,6
1580697653.017,6
1580697663.017,6
1580697673.017,6
1580697683.017,6
1580697693.017,6
1580697703.017,6
1580697713.017,6
1580697723.017,6
1580697733.017,6
1580697743.017,6
1580697753.017,6
1580697763.017,6
1580697773.017,6
1580697783.017,6
1580697793.017,6
1580697803.017,6
1580697813.017,6
1580697823.017,6
1580697833.017,6
1580697843.017,6
1580697853.017,6
1580697863.017,6
1580697873.017,6
1580697883.017,6
1580697893.017,6
1580697903.017,6
1580697913.017,6
1580697923.017,6
1580697933.017,6
1580697943.017,6
1580697953.017,6
1580697963.017,6
1580697973.017,6
1580697983.017,6
1580697993.017,6
1580698003.017,6
1580698013.017,6
1580698023.017,6
1580698033.017,6
1580698043.017,7
1580698053.017,7
1580698063.017,7
1580698073.017,7
1580698083.017,7
1580698093.017,7
1580698103.017,7
1580698113.017,7
1580698123.017,7
1580698133.017,7
1580698143.017,7
1580698153.017,7
1580698163.017,7
1580698173.017,7
1580698183.017,7
1580698193.017,7
1580698203.017,7
1580698213.017,7
1580698223.017,7
1580698233.017,7
1580698243.017,7
1580698253.017,7
1580698263.017,7
1580698273.017,7
1580698283.017,7
1580698293.017,7
1580698303.017,7
1580698313.017,7
1580698323.017,7
1580698333.017,7
1580698343.017,7
1580698353.017,7
1580698363.017,7
1580698373.017,7
1580698383.017,7
1580698393.017,7
1580698403.017,7
1580698413.017,7
1580698423.017,7
1580698433.017,7
1580698443.017,7
1580698453.017,7
1580698463.017,7
1580698483.017,7
1580698493.017,7
1580698503.017,7
1580698513.017,7
1580698523.017,7
1580698533.017,7
1580698543.017,7
1580698553.017,7
1580698563.017,7
1580698573.017,7
1580698583.017,7
1580698593.017,7
1580698603.017,7
1580698613.017,7
1580698623.017,7
1580698633.017,7
1580698643.017,7
1580698653.017,7
1580698663.017,7
1580698673.017,7
1580698683.017,7
1580698693.017,7
1580698703.017,7
1580698713.017,7
1580698723.017,7
1580698733.017,7
1580698743.017,7
1580698753.017,7
1580698763.017,7
1580698773.017,7
1580698783.017,7
1580698793.017,7
1580698803.017,7
1580698813.017,7
1580698823.017,7
1580698833.017,7
1580698843.017,7
1580698853.017,7
1580698863.017,7
1580698873.017,7
1580698883.017,7
1580698893.017,7
1580698903.017,7
1580698913.017,7
1580698923.017,7
1580698933.017,7
1580698943.017,7
1580698953.017,7
1580698963.017,7
1580698973.017,7
1580698983.017,7
1580698993.017,7
1580699003.017,7
1580699013.017,7
1580699023.017,7
1580699033.017,7
1580699043.017,7
1580699053.017,7
1580699063.017,7
1580699073.017,7
1580699083.017,7
1580699093.017,8
1580699103.017,8
1580699113.017,8
1580699123.017,8
1580699133.017,8
1580699143.017,8
1580699153.017,8
1580699163.017,8
1580699173.017,8
1580699183.017,8
1580699193.017,8
1580699203.017,8
1580699213.017,8
1580699223.017,8
1580699233.017,8
1580699243.017,8
1580699253.017,8
1580699263.017,8
1580699273.017,8
1580699283.017,8
1580699293.017,8
1580699303.017,8
1580699313.017,8
1580699323.017,8
1580699333.017,8
1580699343.017,8
1580699353.017,8
1580699363.017,8
1580699373.017,8
1580699383.017,8
1580699393.017,8
1580699403.017,8
1580699413.017,8
1580699423.017,8
1580699433.017,8
1580699443.017,8
1580699453.017,8
1580699463.017,8
1580699473.017,8
1580699483.017,8
1580699493.017,8
1580699503.017,8
1580699513.017,8
1580699523.017,8
1580699533.017,8
1580699543.017,8
1580699553.017,8
1580699563.017,8
1580699573.025,8
1580699583.017,8
1580699593.017,8
1580699603.017,8
1580699613.017,8
1580699623.017,8
1580699633.017,8
1580699643.017,8
1580699653.017,8
1580699663.017,8
1580699673.017,8
1580699683.017,8
1580699693.017,8
1580699703.017,8
1580699713.017,8
1580699723.017,8
1580699733.017,8
1580699743.017,8
1580699753.017,8
1580699763.017,8
1580699773.017,8
1580699783.017,8
1580699793.017,8
1580699803.017,8
1580699813.017,8
1580699823.017,8
1580699833.017,9
1580699843.017,9
1580699853.017,9
1580699863.017,9
1580699873.017,9
1580699883.017,9
1580699893.017,9
1580699903.017,9
1580699913.017,9
1580699923.017,9
1580699933.017,9
1580699943.017,9
1580699953.017,9
1580699963.017,9
1580699973.017,9
1580699983.017,9
1580699993.017,9
1580700003.017,9
1580700013.017,9
1580700023.017,9
1580700033.017,9
1580700043.017,9
1580700053.025,9
1580700063.017,9
1580700073.017,9
1580700083.017,9
1580700093.017,9
1580700103.017,9
1580700113.017,9
1580700123.017,9
1580700133.017,9
1580700143.017,9
1580700153.017,9
1580700163.017,9
1580700173.017,9
1580700183.017,9
1580700193.017,9
1580700203.017,9
1580700213.017,9
