epoch,value
1579936735.729,51490
1579936745.711,51490
1579936755.713,51491
1579936765.711,51491
1579936775.712,51491
1579936785.711,51491
1579936795.711,51491
1579936805.713,51491
1579936815.714,51491
1579936825.711,51491
1579936835.711,51491
1579936845.711,51491
1579936855.711,51491
1579936865.711,51491
1579936875.714,51491
1579936885.712,51491
1579936895.713,51491
1579936905.711,51492
1579936915.711,51492
1579936925.712,51492
1579936935.711,51492
1579936945.711,51492
1579936955.711,51492
1579936965.711,51494
1579936975.711,51494
1579936985.711,51494
1579936995.711,51494
1579937005.711,51494
1579937015.712,51494
1579937025.712,51494
1579937035.711,51494
1579937045.713,51494
1579937055.711,51494
1579937065.712,51494
1579937075.713,51494
1579937085.711,51494
1579937095.711,51494
1579937105.711,51494
1579937115.711,51494
1579937125.712,51494
1579937135.711,51496
1579937145.712,51496
1579937155.711,51497
1579937165.715,51497
1579937175.711,51497
1579937185.711,51497
1579937195.715,51497
1579937205.711,51497
1579937215.711,51497
1579937225.711,51497
1579937235.711,51497
1579937245.711,51497
1579937255.713,51497
1579937265.711,51497
1579937275.712,51497
1579937285.711,51497
1579937295.712,51497
1579937305.711,51497
1579937315.711,51497
1579937325.711,51497
1579937335.711,51497
1579937345.711,51497
1579937355.711,51497
1579937365.712,51497
1579937375.711,51497
1579937385.711,51497
1579937395.711,51498
1579937405.712,51498
1579937415.713,51498
1579937425.711,51498
1579937435.711,51498
1579937445.712,51498
1579937455.712,51498
1579937465.712,51498
1579937475.711,51498
1579937485.711,51498
1579937495.711,51498
1579937505.711,51498
1579937515.711,51498
1579937525.711,51498
1579937535.712,51498
1579937545.711,51498
1579937555.711,51498
1579937565.711,51498
1579937575.711,51499
1579937585.712,51499
1579937595.711,51499
1579937605.711,51499
1579937615.712,51500
1579937625.711,51500
1579937635.712,51500
1579937645.712,51500
1579937655.712,51500
1579937665.711,51500
1579937675.711,51500
1579937685.711,51501
1579937695.711,51501
1579937705.711,51501
1579937715.711,51501
1579937725.711,51501
1579937735.711,51501
1579937745.712,51501
1579937755.711,51501
1579937765.711,51501
1579937775.711,51501
1579937785.711,51501
1579937795.711,51501
1579937805.712,51501
1579937815.711,51501
1579937825.711,51501
1579937835.711,51501
1579937845.711,51501
1579937855.711,51501
1579937865.711,51501
1579937875.712,51501
1579937885.711,51501
1579937895.711,51501
1579937905.712,51501
1579937915.711,51501
1579937925.711,51501
1579937935.711,51501
1579937945.712,51501
1579937955.711,51503
1579937965.711,51503
1579937975.711,51503
1579937985.711,51503
1579937995.711,51503
1579938005.711,51503
1579938015.711,51503
1579938025.711,51503
1579938035.711,51503
1579938045.711,51503
1579938055.711,51503
1579938065.713,51503
1579938075.711,51503
1579938085.711,51503
1579938095.711,51503
1579938105.712,51503
1579938115.711,51503
1579938125.711,51503
1579938135.711,51503
1579938145.711,51503
1579938155.711,51503
1579938165.711,51503
1579938175.713,51503
1579938185.712,51503
1579938195.711,51503
1579938205.711,51503
1579938215.711,51503
1579938225.712,51503
1579938235.711,51503
1579938245.711,51503
1579938255.711,51503
1579938265.711,51503
1579938275.712,51503
1579938285.713,51503
1579938295.712,51503
1579938305.711,51503
1579938315.711,51503
1579938325.711,51503
1579938335.711,51503
1579938345.714,51503
1579938355.711,51503
1579938365.711,51503
1579938375.711,51503
1579938385.711,51503
1579938395.711,51503
1579938405.711,51503
1579938415.711,51503
1579938425.711,51503
1579938435.712,51503
1579938445.711,51504
1579938455.711,51504
1579938465.711,51504
1579938475.712,51504
1579938485.711,51504
1579938495.711,51504
1579938505.711,51504
1579938515.713,51506
1579938525.711,51506
1579938535.712,51506
1579938545.713,51506
1579938555.711,51508
1579938565.711,51508
1579938575.711,51509
1579938585.712,51509
1579938595.711,51509
1579938605.711,51509
1579938615.712,51509
1579938625.711,51509
1579938635.711,51509
1579938645.711,51509
1579938655.711,51509
1579938665.711,51509
1579938675.711,51510
1579938685.713,51510
1579938695.711,51510
1579938705.711,51510
1579938715.711,51510
1579938725.712,51510
1579938735.714,51510
1579938745.713,51510
1579938755.711,51510
1579938765.711,51510
1579938775.714,51510
1579938785.711,51511
1579938795.712,51512
1579938805.711,51512
1579938815.711,51513
1579938825.711,51513
1579938835.713,51513
1579938845.711,51513
1579938855.712,51513
1579938865.711,51513
1579938875.711,51513
1579938885.712,51513
1579938895.711,51513
1579938905.711,51513
1579938915.711,51513
1579938925.711,51513
1579938935.712,51516
1579938945.712,51516
1579938955.711,51516
1579938965.712,51516
1579938975.711,51516
1579938985.712,51516
1579938995.713,51516
1579939005.711,51516
1579939015.711,51516
1579939025.711,51516
1579939035.711,51516
1579939045.711,51516
1579939055.711,51516
1579939065.711,51516
1579939075.711,51516
1579939085.711,51516
1579939095.711,51516
1579939105.711,51516
1579939115.712,51516
1579939125.711,51516
1579939135.711,51516
1579939145.711,51516
1579939155.711,51516
1579939165.712,51516
1579939175.715,51516
1579939185.711,51516
1579939195.711,51516
1579939205.711,51516
1579939215.711,51517
1579939225.711,51517
1579939235.711,51517
1579939245.711,51517
1579939255.712,51517
1579939265.711,51517
1579939275.711,51517
1579939285.712,51517
1579939295.712,51517
1579939305.711,51517
1579939315.711,51517
1579939325.711,51517
1579939335.711,51517
1579939345.711,51517
1579939355.711,51517
1579939365.712,51517
1579939375.713,51517
1579939385.711,51517
1579939395.711,51517
1579939405.712,51517
1579939415.711,51517
1579939425.711,51517
1579939435.712,51517
1579939445.711,51517
1579939455.711,51517
1579939465.711,51517
1579939475.711,51517
1579939485.711,51517
1579939495.711,51517
