epoch,value
1579921279.433,38271
1579921289.415,38271
1579921299.415,38271
1579921309.413,38271
1579921319.413,38271
1579921329.414,38271
1579921339.413,38271
1579921349.413,38271
1579921359.413,38271
1579921369.413,38271
1579921379.414,38271
1579921389.413,38271
1579921399.413,38271
1579921409.413,38271
1579921419.413,38271
1579921429.413,38271
1579921439.415,38273
1579921449.413,38273
1579921459.413,38273
1579921469.413,38273
1579921479.413,38274
1579921489.413,38274
1579921499.414,38274
1579921509.413,38274
1579921519.413,38274
1579921529.413,38274
1579921539.413,38274
1579921549.413,38274
1579921559.413,38274
1579921569.414,38274
1579921579.413,38274
1579921589.413,38274
1579921599.413,38274
1579921609.413,38274
1579921619.418,38274
1579921629.414,38274
1579921639.413,38274
1579921649.413,38275
1579921659.413,38275
1579921669.414,38275
1579921679.413,38275
1579921689.415,38275
1579921699.413,38275
1579921709.413,38275
1579921719.413,38275
1579921729.413,38275
1579921739.413,38275
1579921749.413,38275
1579921759.414,38275
1579921769.413,38276
1579921779.413,38276
1579921789.413,38276
1579921799.413,38276
1579921809.415,38276
1579921819.413,38276
1579921829.413,38276
1579921839.414,38276
1579921849.415,38276
1579921859.413,38276
1579921869.413,38276
1579921879.416,38276
1579921889.413,38276
1579921899.413,38276
1579921909.413,38276
1579921919.413,38276
1579921929.413,38276
1579921939.416,38276
1579921949.414,38276
1579921959.415,38278
1579921969.413,38278
1579921979.413,38278
1579921989.413,38278
1579921999.413,38279
1579922009.413,38279
1579922019.413,38279
1579922029.413,38279
1579922039.415,38279
1579922049.417,38279
1579922059.413,38279
1579922069.413,38279
1579922079.413,38279
1579922089.413,38280
1579922099.414,38280
1579922109.413,38280
1579922119.413,38280
1579922129.413,38280
1579922139.413,38280
1579922149.413,38281
1579922159.413,38281
1579922169.414,38281
1579922179.414,38281
1579922189.414,38281
1579922199.413,38281
1579922209.413,38282
1579922219.414,38282
1579922229.413,38282
1579922239.413,38282
1579922249.413,38282
1579922259.414,38282
1579922269.415,38282
1579922279.413,38282
1579922289.413,38284
1579922299.414,38284
1579922309.415,38284
1579922319.414,38284
1579922329.413,38284
1579922339.413,38284
1579922349.413,38284
1579922359.413,38284
1579922369.413,38284
1579922379.413,38284
1579922389.413,38284
1579922399.413,38284
1579922409.414,38284
1579922419.415,38284
1579922429.413,38284
1579922439.413,38284
1579922449.413,38284
1579922459.415,38284
1579922469.415,38284
1579922479.414,38284
1579922489.413,38284
1579922499.415,38284
1579922509.414,38284
1579922519.413,38285
1579922529.413,38285
1579922539.413,38286
1579922549.414,38286
1579922559.413,38286
1579922569.413,38286
1579922579.413,38286
1579922589.413,38286
1579922599.413,38286
1579922609.413,38286
1579922619.413,38286
1579922629.416,38286
1579922639.413,38286
1579922649.413,38286
1579922659.415,38286
1579922669.413,38286
1579922679.413,38286
1579922689.413,38286
1579922699.413,38286
1579922709.414,38286
1579922719.414,38286
1579922729.413,38286
1579922739.413,38286
1579922749.413,38286
1579922759.416,38286
1579922769.413,38286
1579922779.413,38286
1579922789.413,38286
1579922799.413,38286
1579922809.416,38286
1579922819.416,38287
1579922829.415,38287
1579922839.414,38287
1579922849.415,38287
1579922859.413,38287
1579922869.413,38287
1579922879.413,38287
1579922889.415,38287
1579922899.416,38287
1579922909.414,38287
1579922919.414,38287
1579922929.413,38287
1579922939.413,38287
1579922949.413,38287
1579922959.414,38287
1579922969.414,38288
1579922979.413,38289
1579922989.413,38289
1579922999.414,38289
1579923009.413,38290
1579923019.413,38290
1579923029.413,38290
1579923039.414,38290
1579923049.414,38290
1579923059.413,38290
1579923069.414,38290
1579923079.413,38290
1579923089.413,38291
1579923099.414,38291
1579923109.414,38291
1579923119.416,38291
1579923129.413,38291
1579923139.413,38291
1579923149.414,38291
1579923159.413,38291
1579923169.414,38291
1579923179.413,38291
1579923189.413,38291
1579923199.413,38291
1579923209.413,38291
1579923219.413,38291
1579923229.413,38291
1579923239.413,38291
1579923249.413,38291
1579923259.413,38291
1579923269.413,38291
1579923279.416,38291
1579923289.413,38291
1579923299.413,38291
1579923309.413,38291
1579923319.413,38291
1579923329.414,38291
1579923339.413,38291
1579923349.414,38291
1579923359.414,38291
1579923369.413,38292
1579923379.416,38292
1579923389.413,38292
1579923399.413,38292
1579923409.413,38293
1579923419.414,38293
1579923429.415,38293
1579923439.413,38293
1579923449.413,38294
1579923459.413,38294
1579923469.414,38294
1579923479.413,38294
1579923489.413,38294
1579923499.413,38294
1579923509.413,38294
1579923519.414,38294
1579923529.413,38294
1579923539.413,38294
1579923549.413,38294
1579923559.414,38294
1579923569.415,38296
1579923579.413,38296
1579923589.413,38296
1579923599.415,38296
1579923609.413,38296
1579923619.413,38296
1579923629.413,38296
1579923639.413,38296
1579923649.413,38296
1579923659.413,38296
1579923669.413,38297
1579923679.413,38297
1579923689.414,38297
1579923699.413,38297
1579923709.413,38297
1579923719.413,38297
1579923729.413,38298
1579923739.413,38298
1579923749.413,38298
1579923759.413,38298
1579923769.413,38298
1579923779.416,38298
1579923789.413,38299
1579923799.416,38299
1579923809.417,38299
1579923819.415,38299
1579923829.413,38299
1579923839.413,38299
1579923849.415,38299
1579923859.413,38299
1579923869.413,38299
1579923879.413,38299
1579923889.413,38299
1579923899.414,38299
1579923909.413,38299
1579923919.413,38300
1579923929.413,38300
1579923939.413,38300
1579923949.416,38300
1579923959.413,38300
1579923969.414,38300
1579923979.413,38300
1579923989.415,38300
1579923999.413,38300
1579924009.413,38300
1579924019.414,38300
1579924029.414,38300
1579924039.414,38300
