epoch,value
1580832557.463,9227
1580832567.445,9227
1580832577.442,9227
1580832587.442,9227
1580832597.443,9227
1580832607.442,9227
1580832617.443,9227
1580832627.443,9227
1580832637.442,9227
1580832647.442,9227
1580832657.442,9227
1580832667.442,9227
1580832677.442,9227
1580832687.442,9227
1580832697.442,9227
1580832707.442,9227
1580832717.442,9227
1580832727.444,9227
1580832737.442,9227
1580832747.442,9227
1580832757.443,9227
1580832767.443,9227
1580832777.442,9227
1580832787.444,9227
1580832797.442,9227
1580832807.442,9227
1580832817.442,9227
1580832827.443,9227
1580832837.442,9227
1580832847.442,9227
1580832857.442,9227
1580832867.442,9227
1580832877.442,9227
1580832887.442,9227
1580832897.442,9227
1580832907.442,9227
1580832917.442,9227
1580832927.442,9227
1580832937.444,9227
1580832947.442,9227
1580832957.442,9227
1580832967.442,9227
1580832977.443,9227
1580832987.442,9227
1580832997.442,9227
1580833007.444,9227
1580833017.442,9227
1580833027.442,9227
1580833037.442,9227
1580833047.442,9227
1580833057.442,9227
1580833067.443,9227
1580833077.443,9227
1580833087.443,9227
1580833097.443,9227
1580833107.442,9227
1580833117.442,9227
1580833127.442,9227
1580833137.444,9227
1580833147.442,9227
1580833157.443,9227
1580833167.444,9227
1580833177.442,9227
1580833187.442,9227
1580833197.444,9227
1580833207.442,9227
1580833217.442,9227
1580833227.443,9227
1580833237.442,9227
1580833247.442,9227
1580833257.442,9227
1580833267.442,9227
1580833277.443,9227
1580833287.442,9227
1580833297.442,9227
1580833307.442,9227
1580833317.442,9227
1580833327.442,9227
1580833337.443,9227
1580833347.442,9227
1580833357.443,9227
1580833367.443,9227
1580833377.445,9227
1580833387.443,9227
1580833397.442,9227
1580833407.442,9227
1580833417.442,9227
1580833427.443,9227
1580833437.442,9227
1580833447.444,9227
1580833457.443,9227
1580833467.443,9227
1580833477.442,9227
1580833487.442,9227
1580833497.442,9227
1580833507.443,9227
1580833517.442,9227
1580833527.445,9227
1580833537.442,9227
1580833547.442,9227
1580833557.442,9227
1580833567.442,9227
1580833577.443,9227
1580833587.443,9227
1580833597.442,9227
1580833607.442,9227
1580833617.442,9227
1580833627.442,9227
1580833637.442,9227
1580833647.442,9227
1580833657.442,9227
1580833667.442,9227
1580833677.442,9227
1580833687.442,9227
1580833697.442,9227
1580833707.443,9227
1580833717.442,9227
1580833727.442,9227
1580833737.442,9227
1580833747.442,9227
1580833757.442,9227
1580833767.442,9227
1580833777.442,9227
1580833787.442,9227
1580833797.443,9227
1580833807.443,9227
1580833817.444,9227
1580833827.442,9227
1580833837.443,9227
1580833847.442,9227
1580833857.442,9227
1580833867.444,9227
1580833877.442,9227
1580833887.444,9227
1580833897.443,9227
1580833907.442,9227
1580833917.442,9227
1580833927.444,9227
1580833937.442,9227
1580833947.442,9227
1580833957.442,9227
1580833967.442,9227
1580833977.443,9227
1580833987.442,9227
1580833997.442,9227
1580834007.442,9227
1580834017.442,9227
1580834027.446,9227
1580834037.442,9227
1580834047.444,9227
1580834057.442,9227
1580834067.443,9227
1580834077.443,9227
1580834087.443,9227
1580834097.442,9227
1580834107.444,9227
1580834117.443,9227
1580834127.443,9227
1580834137.442,9227
1580834147.442,9227
1580834157.442,9227
1580834167.442,9227
1580834177.442,9227
1580834187.442,9227
1580834197.442,9227
1580834207.442,9227
1580834217.443,9227
1580834227.443,9227
1580834237.444,9227
1580834247.442,9227
1580834257.444,9227
1580834267.443,9227
1580834277.443,9227
1580834287.442,9227
1580834297.442,9227
1580834307.444,9227
1580834317.442,9227
1580834327.443,9227
1580834337.445,9227
1580834347.443,9227
1580834357.443,9227
1580834367.442,9227
1580834377.443,9227
1580834387.443,9227
1580834397.442,9227
1580834407.442,9227
1580834417.442,9227
1580834427.443,9227
1580834437.443,9227
1580834447.443,9227
1580834457.443,9227
1580834467.443,9227
1580834477.442,9227
1580834487.443,9227
1580834497.443,9227
1580834507.442,9227
1580834517.443,9227
1580834527.442,9227
1580834537.442,9227
1580834547.442,9227
1580834557.444,9227
1580834567.442,9227
1580834577.442,9227
1580834587.442,9227
1580834597.442,9227
1580834607.443,9227
1580834617.442,9227
1580834627.442,9227
1580834637.444,9227
1580834647.443,9227
1580834657.444,9227
1580834667.442,9227
1580834677.442,9227
1580834687.443,9227
1580834697.445,9227
1580834707.443,9227
1580834717.443,9227
1580834727.443,9227
1580834737.444,9227
1580834747.442,9227
1580834757.442,9227
1580834767.443,9227
1580834777.445,9227
1580834787.445,9227
1580834797.442,9227
1580834807.444,9227
1580834817.444,9227
1580834827.443,9227
1580834837.444,9227
1580834847.442,9227
1580834857.442,9227
1580834867.442,9227
1580834877.442,9227
1580834887.444,9227
1580834897.443,9227
1580834907.442,9227
1580834917.443,9227
1580834927.444,9227
1580834937.442,9227
1580834947.442,9227
1580834957.442,9227
1580834967.442,9227
1580834977.445,9227
1580834987.442,9227
1580834997.442,9227
1580835007.444,9227
1580835017.442,9227
1580835027.442,9227
1580835037.443,9227
1580835047.442,9227
1580835057.443,9227
1580835067.442,9227
1580835077.443,9227
1580835087.442,9227
1580835097.444,9227
