epoch,value
1580594964.715,0
1580594974.715,0
1580594984.715,0
1580594994.715,0
1580595004.715,0
1580595014.715,12
1580595024.715,36
1580595034.715,39
1580595044.715,40
1580595054.716,43
1580595064.715,43
1580595074.715,46
1580595084.715,49
1580595094.715,53
1580595104.715,58
1580595114.715,63
1580595124.715,67
1580595134.715,70
1580595144.715,74
1580595154.715,78
1580595164.715,81
1580595174.715,85
1580595184.715,87
1580595194.715,90
1580595204.715,94
1580595214.715,97
1580595224.715,100
1580595234.715,111
1580595244.717,113
1580595254.715,115
1580595264.715,118
1580595274.715,118
1580595284.715,120
1580595294.715,121
1580595304.715,121
1580595314.715,121
1580595324.715,121
1580595334.715,121
1580595344.715,121
1580595354.715,121
1580595364.715,121
1580595374.715,121
1580595384.715,121
1580595394.715,121
1580595404.715,121
1580595414.715,121
1580595424.715,121
1580595434.715,121
1580595444.715,121
1580595454.715,121
1580595464.715,121
1580595474.715,121
1580595484.715,121
1580595494.715,121
1580595504.715,121
1580595514.715,121
1580595524.715,121
1580595534.715,121
1580595544.715,121
1580595554.715,121
1580595564.715,121
1580595574.715,121
1580595584.715,121
1580595594.715,121
1580595604.715,121
1580595614.715,121
1580595624.715,121
1580595634.715,121
1580595644.715,121
1580595654.715,121
1580595664.715,121
1580595674.715,121
1580595684.715,121
1580595694.715,121
1580595704.715,121
1580595714.715,121
1580595724.715,121
1580595734.715,121
1580595744.715,121
1580595754.715,121
1580595764.715,121
1580595774.715,121
1580595784.715,121
1580595794.715,121
1580595804.715,121
1580595814.715,121
1580595824.715,121
1580595834.715,121
1580595844.715,121
1580595854.715,121
1580595864.715,121
1580595874.715,121
1580595884.715,121
1580595894.715,121
1580595904.715,121
1580595914.715,121
1580595924.715,121
1580595934.715,122
1580595944.715,122
1580595954.715,122
1580595964.715,122
1580595974.715,122
1580595984.715,123
1580595994.715,123
1580596004.715,123
1580596014.715,123
1580596024.717,123
1580596034.715,123
1580596044.715,123
1580596054.715,124
1580596064.715,124
1580596074.715,124
1580596084.715,124
1580596094.715,124
1580596104.715,125
1580596114.715,125
1580596124.715,125
1580596134.715,125
1580596144.715,125
1580596154.715,125
1580596164.715,125
1580596174.715,125
1580596184.715,125
1580596194.718,125
1580596204.715,125
1580596214.715,125
1580596224.715,125
1580596234.715,125
1580596244.715,125
1580596254.715,125
1580596264.715,125
1580596274.715,126
1580596284.715,126
1580596294.715,126
1580596304.715,126
1580596314.715,126
1580596324.715,126
1580596334.715,126
1580596344.715,126
1580596364.715,126
1580596374.715,126
1580596384.715,126
1580596394.715,126
1580596404.715,126
1580596414.715,126
1580596424.718,126
1580596434.715,126
1580596444.715,126
1580596454.715,126
1580596464.717,126
1580596474.715,126
1580596484.715,126
1580596494.715,126
1580596504.715,126
1580596514.715,126
1580596524.715,126
1580596534.715,126
1580596544.715,126
1580596554.717,126
1580596564.715,126
1580596574.715,126
1580596584.715,126
1580596594.715,126
1580596604.715,126
1580596614.715,126
1580596624.715,126
1580596634.715,126
1580596644.715,126
1580596654.715,126
1580596664.715,126
1580596674.715,126
1580596684.715,126
1580596694.715,127
1580596704.715,127
1580596714.715,127
1580596724.715,127
1580596734.715,127
1580596744.715,127
1580596754.715,127
1580596764.715,127
1580596774.715,127
1580596784.715,127
1580596794.715,127
1580596804.715,127
1580596814.715,127
1580596824.715,127
1580596834.715,127
1580596844.715,127
1580596854.715,127
1580596864.715,127
1580596874.715,127
1580596884.715,127
1580596894.715,127
1580596904.715,127
1580596914.715,127
1580596924.715,127
1580596934.715,127
1580596944.715,127
1580596954.715,127
1580596964.722,127
1580596974.715,127
1580596984.715,127
1580596994.715,127
1580597004.715,127
1580597014.715,127
1580597024.715,127
1580597034.715,127
1580597044.715,127
1580597054.715,127
1580597064.715,127
1580597074.715,127
1580597084.715,127
1580597094.715,127
1580597104.715,127
1580597114.715,127
1580597124.715,127
1580597134.717,127
1580597144.715,127
1580597154.715,128
1580597164.715,128
1580597174.715,128
1580597184.715,128
1580597194.715,128
1580597204.715,128
1580597214.715,128
1580597224.715,128
1580597234.717,128
1580597244.715,128
1580597254.715,128
1580597264.721,128
1580597274.715,128
1580597284.715,128
1580597294.715,128
1580597304.715,128
1580597314.715,128
1580597324.715,128
1580597334.715,128
1580597344.715,128
1580597354.715,128
1580597364.715,128
1580597374.715,128
1580597384.715,128
1580597394.715,128
1580597404.715,128
1580597414.715,128
1580597424.715,128
1580597434.715,128
1580597444.715,128
1580597454.715,128
1580597464.717,128
1580597474.717,128
1580597484.715,128
1580597494.715,128
1580597504.715,128
1580597514.715,128
1580597524.715,128
1580597534.715,128
1580597544.715,128
1580597554.715,128
1580597564.715,128
1580597574.715,128
1580597584.715,128
1580597594.715,128
1580597604.715,128
1580597614.715,128
1580597624.715,128
1580597634.715,129
1580597644.715,129
1580597654.715,129
1580597664.715,129
1580597674.715,129
1580597684.715,129
1580597694.715,129
1580597704.715,129
1580597714.715,129
1580597724.715,129
1580597734.715,129
1580597744.715,129
1580597754.715,129
1580597764.715,129
1580597774.715,129
1580597784.715,129
1580597794.715,129
1580597804.715,129
1580597814.715,129
1580597824.715,129
1580597834.715,129
1580597844.715,129
1580597854.715,129
1580597864.715,129
1580597874.715,129
1580597884.715,129
1580597894.715,129
1580597904.715,129
1580597914.715,129
1580597924.715,129
1580597934.715,129
1580597944.715,129
1580597954.716,129
1580597964.715,130
1580597974.715,130
1580597984.715,130
1580597994.715,130
