epoch,value
1580474539.658,411524
1580474549.637,411524
1580474559.637,411524
1580474569.637,411525
1580474579.638,411525
1580474589.637,411525
1580474599.637,411525
1580474609.638,411527
1580474619.639,411527
1580474629.638,411527
1580474639.637,411527
1580474649.637,411528
1580474659.637,411529
1580474669.637,411529
1580474679.638,411530
1580474689.639,411531
1580474699.638,411532
1580474709.638,411532
1580474719.638,411532
1580474729.639,411532
1580474739.637,411533
1580474749.637,411534
1580474759.637,411534
1580474769.637,411534
1580474779.637,411534
1580474789.637,411534
1580474799.638,411534
1580474809.637,411534
1580474819.639,411534
1580474829.637,411534
1580474839.637,411534
1580474849.637,411534
1580474859.637,411534
1580474869.637,411534
1580474879.637,411534
1580474889.639,411534
1580474899.638,411535
1580474909.637,411535
1580474919.637,411535
1580474929.637,411536
1580474939.637,411536
1580474949.637,411538
1580474959.637,411538
1580474969.638,411538
1580474979.638,411538
1580474989.638,411540
1580474999.637,411541
1580475009.637,411542
1580475019.637,411543
1580475029.640,411543
1580475039.638,411543
1580475049.637,411544
1580475059.638,411544
1580475069.640,411544
1580475079.638,411546
1580475089.637,411546
1580475099.637,411547
1580475109.637,411549
1580475119.638,411549
1580475129.637,411549
1580475139.637,411550
1580475149.638,411550
1580475159.637,411552
1580475169.638,411554
1580475179.639,411556
1580475189.639,411556
1580475199.638,411556
1580475209.637,411557
1580475219.637,411558
1580475229.637,411559
1580475239.637,411561
1580475249.637,411562
1580475259.637,411566
1580475269.637,411568
1580475279.637,411568
1580475289.638,411569
1580475299.637,411572
1580475309.637,411574
1580475319.637,411576
1580475329.638,411578
1580475339.637,411580
1580475349.638,411581
1580475359.637,411586
1580475369.637,411587
1580475379.637,411588
1580475389.637,411590
1580475399.638,411592
1580475409.637,411592
1580475419.637,411593
1580475429.639,411595
1580475439.640,411596
1580475449.637,411597
1580475459.638,411598
1580475469.637,411600
1580475479.637,411601
1580475489.637,411602
1580475499.637,411602
1580475509.638,411603
1580475519.637,411604
1580475529.637,411609
1580475539.637,411612
1580475549.637,411612
1580475559.637,411613
1580475569.637,411613
1580475579.637,411614
1580475589.637,411615
1580475599.637,411616
1580475609.638,411616
1580475619.637,411618
1580475629.639,411618
1580475639.639,411619
1580475649.637,411619
1580475659.637,411620
1580475669.637,411620
1580475679.637,411620
1580475689.637,411621
1580475699.638,411621
1580475709.638,411622
1580475719.638,411623
1580475729.637,411623
1580475739.637,411624
1580475749.637,411624
1580475759.638,411624
1580475769.637,411624
1580475779.640,411626
1580475789.637,411626
1580475799.641,411626
1580475809.637,411626
1580475819.637,411629
1580475829.637,411630
1580475839.639,411631
1580475849.637,411631
1580475859.637,411631
1580475869.637,411631
1580475879.637,411632
1580475889.637,411632
1580475899.637,411632
1580475909.637,411634
1580475919.637,411634
1580475929.638,411634
1580475939.637,411634
1580475949.637,411634
1580475959.637,411635
1580475969.637,411636
1580475979.637,411636
1580475989.637,411636
1580475999.640,411636
1580476009.637,411636
1580476019.637,411636
1580476029.637,411636
1580476039.637,411636
1580476049.637,411636
1580476059.637,411637
1580476069.637,411638
1580476079.637,411638
1580476089.637,411638
1580476099.638,411638
