epoch,value
1579808604.000,239078
1579808613.984,239078
1579808623.981,239079
1579808633.982,239079
1579808643.981,239079
1579808653.981,239079
1579808663.981,239087
1579808673.981,239117
1579808683.981,239151
1579808693.981,239188
1579808703.982,239224
1579808713.981,239259
1579808723.982,239288
1579808733.981,239326
1579808743.981,239363
1579808753.981,239405
1579808763.981,239452
1579808773.983,239498
1579808783.981,239537
1579808793.981,239566
1579808803.981,239595
1579808813.981,239629
1579808823.981,239660
1579808833.981,239690
1579808843.981,239715
1579808853.981,239745
1579808863.981,239786
1579808873.981,239821
1579808883.981,239858
1579808893.981,239888
1579808903.982,239924
1579808913.981,239959
1579808923.981,239996
1579808933.983,240032
1579808943.981,240078
1579808953.981,240126
1579808963.981,240167
1579808973.981,240217
1579808983.981,240276
1579808993.983,240324
1579809003.981,240369
1579809013.981,240410
1579809023.981,240461
1579809033.981,240510
1579809043.981,240560
1579809053.981,240620
1579809063.982,240665
1579809073.981,240698
1579809083.981,240699
1579809093.982,240700
1579809103.981,240700
1579809113.981,240700
1579809123.981,240701
1579809133.981,240702
1579809143.981,240702
1579809153.981,240702
1579809163.982,240704
1579809173.981,240704
1579809183.981,240705
1579809193.981,240706
1579809203.981,240706
1579809213.981,240706
1579809223.981,240707
1579809233.981,240707
1579809243.980,240707
1579809253.981,240707
1579809263.981,240707
1579809273.981,240708
1579809283.981,240709
1579809293.982,240710
1579809303.982,240711
1579809313.981,240711
1579809323.982,240712
1579809333.981,240712
1579809343.981,240712
1579809353.981,240713
1579809363.981,240714
1579809373.981,240714
1579809383.981,240714
1579809393.981,240714
1579809403.981,240715
1579809413.982,240716
1579809423.981,240716
1579809433.982,240716
1579809443.981,240717
1579809453.981,240717
1579809463.981,240717
1579809473.980,240717
1579809483.981,240717
1579809493.982,240718
1579809503.981,240718
1579809513.981,240718
1579809523.981,240719
1579809533.981,240719
1579809543.981,240721
1579809553.982,240722
1579809563.983,240722
1579809573.982,240722
1579809583.981,240724
1579809593.981,240724
1579809603.981,240726
1579809613.982,240726
1579809623.981,240726
1579809633.981,240726
1579809643.981,240728
1579809653.982,240728
1579809663.981,240728
1579809673.981,240730
1579809683.981,240731
1579809693.984,240733
1579809703.982,240733
1579809713.981,240734
1579809723.982,240734
1579809733.981,240734
1579809743.981,240736
1579809753.983,240736
1579809763.981,240736
1579809773.981,240738
1579809783.981,240738
1579809793.981,240740
1579809803.981,240740
1579809813.982,240740
1579809823.981,240740
1579809833.981,240740
1579809843.981,240741
1579809853.982,240743
1579809863.981,240743
1579809873.982,240744
1579809883.981,240744
1579809893.981,240745
1579809903.980,240745
1579809913.981,240745
1579809923.981,240745
1579809933.981,240746
1579809943.981,240746
1579809953.981,240746
1579809963.981,240747
1579809973.980,240748
1579809983.981,240748
1579809993.981,240748
1579810003.981,240748
1579810013.981,240748
1579810023.983,240748
1579810033.981,240749
1579810043.981,240749
1579810053.981,240750
1579810063.981,240750
1579810073.982,240751
1579810083.983,240752
1579810093.981,240752
1579810103.981,240753
1579810113.981,240753
1579810123.981,240755
1579810133.981,240756
1579810143.981,240756
1579810153.981,240757
1579810163.981,240759
