epoch,value
1579795427.839,0
1579795437.839,0
1579795447.839,0
1579795457.840,0
1579795467.839,0
1579795477.839,0
1579795487.839,0
1579795497.839,0
1579795507.839,0
1579795517.839,0
1579795527.839,0
1579795537.839,0
1579795547.839,0
1579795557.839,1
1579795567.839,1
1579795577.839,1
1579795587.843,1
1579795597.839,1
1579795607.839,1
1579795617.839,1
1579795627.839,1
1579795637.839,1
1579795647.839,1
1579795657.839,1
1579795667.839,1
1579795677.839,1
1579795687.839,1
1579795697.839,1
1579795707.839,1
1579795717.839,1
1579795727.839,2
1579795737.839,2
1579795747.839,2
1579795757.839,2
1579795767.839,3
1579795777.839,3
1579795787.839,3
1579795797.839,3
1579795807.839,3
1579795817.839,3
1579795827.839,3
1579795837.839,3
1579795847.839,3
1579795857.839,3
1579795867.839,3
1579795877.839,3
1579795887.839,3
1579795897.839,3
1579795907.840,3
1579795917.839,3
1579795927.839,3
1579795937.839,4
1579795947.839,4
1579795957.839,4
1579795967.839,4
1579795977.839,4
1579795987.839,4
1579795997.839,4
1579796007.839,4
1579796017.839,4
1579796027.839,4
1579796037.839,4
1579796047.839,4
1579796057.839,4
1579796067.839,4
1579796077.839,4
1579796087.839,4
1579796097.839,4
1579796107.839,4
1579796117.839,4
1579796127.839,4
1579796137.839,4
1579796147.839,5
1579796157.839,5
1579796167.839,5
1579796177.839,5
1579796187.839,5
1579796197.839,5
1579796207.839,5
1579796217.839,5
1579796227.839,5
1579796237.839,5
1579796247.839,5
1579796257.839,5
1579796267.839,5
1579796277.839,5
1579796287.839,5
1579796297.839,5
1579796307.839,5
1579796317.839,5
1579796327.839,6
1579796337.839,6
1579796347.841,6
1579796357.839,6
1579796367.840,6
1579796377.839,6
1579796387.839,6
1579796397.839,6
1579796407.839,6
1579796417.839,6
1579796427.839,6
1579796437.839,6
1579796447.839,6
1579796457.839,6
1579796467.839,7
1579796477.839,7
1579796487.839,7
1579796497.839,7
1579796507.839,7
1579796517.839,7
1579796527.839,7
1579796537.839,7
1579796547.839,7
1579796557.839,7
1579796567.839,7
1579796577.839,7
1579796587.839,7
1579796597.839,7
1579796607.839,7
1579796617.839,7
1579796627.839,7
1579796637.839,7
1579796647.839,7
1579796657.839,7
1579796667.839,7
1579796677.839,7
1579796687.839,7
1579796697.839,7
1579796707.839,7
1579796717.839,7
1579796727.839,7
1579796737.839,7
1579796747.839,8
1579796757.839,8
1579796767.839,8
1579796777.839,8
1579796787.839,8
1579796797.839,8
1579796807.839,8
1579796817.839,8
1579796827.839,8
1579796837.839,8
1579796847.839,8
1579796857.839,8
1579796867.839,8
1579796877.839,8
1579796887.839,8
1579796897.839,8
1579796907.839,8
1579796917.839,8
1579796927.839,8
1579796937.839,8
1579796947.839,8
1579796957.839,8
