epoch,value
1579792936.887,236838
1579792946.869,236839
1579792956.869,236839
1579792966.869,236839
1579792976.869,236840
1579792986.869,236842
1579792996.869,236842
1579793006.869,236842
1579793016.869,236842
1579793026.869,236842
1579793036.869,236842
1579793046.869,236842
1579793056.869,236843
1579793066.869,236843
1579793076.869,236843
1579793086.869,236843
1579793096.869,236843
1579793106.869,236844
1579793116.869,236844
1579793126.869,236844
1579793136.869,236844
1579793146.869,236844
1579793156.869,236844
1579793166.869,236844
1579793176.869,236844
1579793186.869,236844
1579793196.869,236846
1579793206.869,236846
1579793216.869,236846
1579793226.869,236847
1579793236.870,236848
1579793246.869,236848
1579793256.869,236849
1579793266.870,236849
1579793276.869,236849
1579793286.869,236850
1579793296.869,236850
1579793306.869,236851
1579793316.869,236852
1579793326.869,236852
1579793336.869,236852
1579793346.869,236854
1579793356.869,236854
1579793366.869,236855
1579793376.870,236855
1579793386.869,236856
1579793396.870,236856
1579793406.869,236856
1579793416.870,236856
1579793426.869,236856
1579793436.873,236856
1579793446.869,236856
1579793456.869,236857
1579793466.869,236857
1579793476.869,236857
1579793486.869,236857
1579793496.869,236857
1579793506.869,236858
1579793516.869,236859
1579793526.869,236860
1579793536.869,236860
1579793546.869,236863
1579793556.869,236863
1579793566.869,236865
1579793576.869,236867
1579793586.869,236868
1579793596.869,236868
1579793606.869,236868
1579793616.870,236868
1579793626.869,236868
1579793636.869,236869
1579793646.869,236871
1579793656.869,236872
1579793666.869,236872
1579793676.871,236872
1579793686.869,236873
1579793696.869,236874
1579793706.869,236874
1579793716.869,236875
1579793726.873,236875
1579793736.870,236877
1579793746.869,236878
1579793756.869,236878
1579793766.869,236878
1579793776.869,236878
1579793786.870,236878
1579793796.869,236878
1579793806.869,236879
1579793816.870,236879
1579793826.871,236879
1579793836.869,236879
1579793846.871,236880
1579793856.869,236880
1579793866.869,236880
1579793876.870,236881
1579793886.871,236881
1579793896.869,236882
1579793906.869,236882
1579793916.869,236883
1579793926.869,236883
1579793936.869,236883
1579793946.869,236884
1579793956.869,236885
1579793966.869,236886
1579793976.869,236886
1579793986.870,236887
1579793996.870,236887
1579794006.869,236887
1579794016.869,236887
1579794026.869,236888
1579794036.870,236888
1579794046.869,236890
1579794056.869,236890
1579794066.870,236891
1579794076.869,236892
1579794086.869,236893
1579794096.872,236893
1579794106.870,236893
1579794116.869,236894
1579794126.869,236894
1579794136.869,236894
1579794146.869,236895
1579794156.869,236897
1579794166.869,236897
1579794176.869,236897
1579794186.869,236897
1579794196.869,236897
1579794206.869,236899
1579794216.870,236899
1579794226.869,236901
1579794236.871,236901
1579794246.869,236902
1579794256.869,236903
1579794266.869,236903
1579794276.869,236904
1579794286.869,236904
1579794296.872,236904
1579794306.869,236904
1579794316.869,236904
1579794326.869,236904
1579794336.869,236904
1579794346.869,236905
1579794356.869,236906
1579794366.869,236908
1579794376.869,236909
1579794386.869,236911
1579794396.869,236912
1579794406.869,236913
1579794416.869,236913
1579794426.869,236915
1579794436.871,236916
1579794446.871,236918
1579794456.869,236922
1579794466.870,236922
1579794476.869,236924
1579794486.869,236925
1579794496.871,236925
