epoch,value
1580229431.103,0
1580229441.103,0
1580229451.103,0
1580229461.103,0
1580229471.103,0
1580229491.104,0
1580229501.103,0
1580229511.103,0
1580229521.103,0
1580229531.103,0
1580229541.103,0
1580229551.103,0
1580229561.103,0
1580229571.103,0
1580229581.103,1
1580229591.103,1
1580229601.103,1
1580229611.103,1
1580229621.103,1
1580229631.103,1
1580229641.103,1
1580229651.103,1
1580229661.103,1
1580229671.103,1
1580229681.103,2
1580229691.103,2
1580229701.103,2
1580229711.103,2
1580229721.103,2
1580229731.103,2
1580229741.103,2
1580229751.103,2
1580229761.103,2
1580229771.103,2
1580229781.103,2
1580229791.103,2
1580229801.103,3
1580229811.103,3
1580229821.103,3
1580229831.103,3
1580229841.103,3
1580229851.103,3
1580229861.103,3
1580229871.103,3
1580229881.105,3
1580229891.103,3
1580229901.103,3
1580229911.103,3
1580229921.103,3
1580229931.103,4
1580229941.103,4
1580229951.103,4
1580229961.107,4
1580229971.103,4
1580229981.103,4
1580229991.103,4
1580230001.107,4
1580230011.103,4
1580230021.103,4
1580230031.103,5
1580230041.103,5
1580230051.103,5
1580230061.103,5
1580230071.105,5
1580230081.103,5
1580230091.103,5
1580230101.103,5
1580230111.103,5
1580230121.103,5
1580230131.103,5
1580230141.103,5
1580230151.103,5
1580230161.103,5
1580230171.103,6
1580230181.103,6
1580230191.103,6
1580230211.103,6
1580230221.103,6
1580230231.103,6
1580230241.103,6
1580230251.103,6
1580230261.103,6
1580230271.103,6
1580230281.103,6
1580230291.103,6
1580230301.103,6
1580230311.103,6
1580230321.103,6
1580230331.103,6
1580230341.103,6
1580230351.103,6
1580230361.103,7
1580230371.103,7
1580230381.103,7
1580230391.103,7
1580230401.103,7
1580230411.103,7
1580230421.103,7
1580230431.103,7
1580230441.103,7
1580230451.103,7
1580230461.103,7
1580230471.103,7
1580230481.103,7
1580230491.103,7
1580230501.103,7
1580230511.104,7
1580230521.103,8
1580230531.103,8
1580230541.103,8
1580230551.103,8
1580230561.103,8
1580230571.103,8
1580230581.103,8
1580230591.103,8
1580230601.103,8
1580230611.103,8
1580230621.103,8
1580230631.107,8
1580230641.103,8
1580230651.103,8
1580230661.103,8
1580230671.103,8
1580230681.103,8
1580230691.103,9
1580230701.103,9
1580230711.103,9
1580230721.107,9
1580230731.103,9
1580230741.103,9
1580230751.103,9
1580230761.103,9
1580230771.103,9
1580230781.103,9
1580230791.103,9
1580230811.103,9
1580230831.103,9
1580230841.103,9
1580230851.103,9
1580230861.103,9
1580230871.103,9
1580230881.109,9
1580230891.107,9
1580230901.103,9
1580230911.103,9
1580230921.103,10
1580230931.103,10
1580230941.103,10
1580230951.103,10
1580230961.103,10
1580230971.103,10
1580230981.103,10
1580230991.103,10
1580231001.103,10
1580231011.103,10
1580231031.103,10
1580231041.104,10
1580231051.103,10
1580231061.103,11
1580231071.103,11
1580231081.103,11
1580231091.103,11
1580231101.103,11
1580231111.103,11
1580231121.103,11
1580231131.103,11
1580231141.103,11
1580231151.103,11
1580231161.103,11
1580231171.103,11
1580231181.103,11
1580231191.103,11
1580231201.103,11
1580231211.103,11
1580231221.103,11
1580231231.103,11
1580231241.104,11
1580231251.103,11
1580231261.103,11
1580231271.103,12
1580231281.103,12
1580231291.103,12
1580231301.103,12
1580231311.103,12
1580231321.103,12
1580231331.103,12
1580231341.103,12
1580231351.103,12
1580231361.103,12
1580231371.103,12
1580231381.103,12
1580231391.103,12
1580231401.103,12
1580231411.103,12
1580231421.103,12
1580231431.103,12
1580231441.103,12
1580231451.103,12
1580231461.103,12
1580231471.103,12
1580231481.103,12
1580231491.103,12
1580231501.103,12
1580231511.103,12
1580231521.107,12
1580231531.103,12
1580231541.103,12
1580231551.103,13
1580231561.103,13
1580231571.103,13
1580231581.105,13
1580231591.103,13
1580231601.103,13
1580231611.103,13
1580231621.103,13
1580231631.103,13
1580231641.103,13
1580231651.103,13
1580231661.103,13
1580231671.103,13
1580231681.107,13
1580231691.103,13
1580231701.103,13
1580231711.103,13
1580231721.103,13
1580231731.103,14
1580231741.103,14
1580231751.103,14
1580231761.103,14
1580231771.103,14
1580231781.104,14
1580231791.103,14
1580231801.103,14
1580231811.103,14
1580231821.103,14
1580231831.103,14
1580231841.103,14
1580231851.103,14
1580231861.103,14
1580231871.103,14
1580231881.103,14
1580231891.103,15
1580231901.103,15
1580231911.103,15
1580231921.103,15
1580231931.103,15
1580231941.103,15
1580231951.103,15
1580231961.103,15
1580231971.103,15
1580231981.103,15
1580231991.103,15
1580232001.103,15
1580232011.103,15
1580232021.103,15
1580232031.103,16
1580232041.103,16
1580232051.103,16
1580232061.103,16
1580232071.103,16
1580232081.103,16
1580232091.103,16
1580232101.103,16
1580232111.103,16
1580232121.103,16
1580232131.103,16
1580232141.103,16
1580232151.103,16
1580232161.103,16
1580232171.103,17
