epoch,value
1580517755.768,413750
1580517765.748,413751
1580517775.747,413751
1580517785.747,413752
1580517795.748,413753
1580517805.747,413754
1580517815.747,413754
1580517825.747,413754
1580517835.748,413754
1580517845.747,413755
1580517855.747,413755
1580517865.747,413755
1580517875.747,413755
1580517885.747,413756
1580517895.747,413758
1580517905.747,413758
1580517915.747,413760
1580517925.747,413760
1580517935.747,413760
1580517945.751,413760
1580517955.747,413761
1580517965.747,413761
1580517975.747,413761
1580517985.747,413761
1580517995.747,413762
1580518005.747,413765
1580518015.747,413765
1580518025.747,413765
1580518035.749,413765
1580518045.747,413766
1580518055.747,413766
1580518065.748,413766
1580518075.747,413766
1580518085.747,413767
1580518095.747,413767
1580518105.747,413768
1580518115.747,413768
1580518125.748,413769
1580518135.747,413769
1580518145.747,413770
1580518155.749,413770
1580518165.747,413771
1580518175.747,413772
1580518185.747,413774
1580518195.747,413774
1580518205.748,413774
1580518215.747,413776
1580518225.748,413777
1580518235.748,413779
1580518245.747,413779
1580518255.747,413779
1580518265.747,413780
1580518275.749,413780
1580518285.748,413781
1580518295.747,413781
1580518305.747,413782
1580518315.747,413782
1580518325.747,413782
1580518335.753,413785
1580518345.747,413786
1580518355.747,413786
1580518365.747,413787
1580518375.747,413788
1580518385.747,413788
1580518395.747,413788
1580518405.747,413790
1580518415.747,413790
1580518425.747,413790
1580518435.747,413791
1580518445.750,413792
1580518455.747,413792
1580518465.747,413792
1580518475.747,413792
1580518485.747,413792
1580518495.748,413793
1580518505.747,413794
1580518515.747,413797
1580518525.747,413797
1580518535.747,413799
1580518545.747,413799
1580518555.747,413799
1580518565.747,413800
1580518575.748,413801
1580518585.747,413801
1580518595.747,413801
1580518605.747,413801
1580518615.749,413803
1580518625.747,413803
1580518635.748,413804
1580518645.747,413805
1580518655.747,413805
1580518665.749,413806
1580518675.748,413806
1580518685.747,413806
1580518695.747,413806
1580518705.747,413809
1580518715.747,413810
1580518725.747,413810
1580518735.747,413811
1580518745.747,413811
1580518755.747,413812
1580518765.748,413812
1580518775.747,413812
1580518785.747,413813
1580518795.747,413814
1580518805.747,413816
1580518815.747,413816
1580518825.747,413817
1580518835.747,413817
1580518845.747,413817
1580518855.747,413818
1580518865.747,413819
1580518875.747,413821
1580518885.747,413821
1580518895.747,413821
1580518905.747,413822
1580518915.747,413822
1580518925.747,413823
1580518935.747,413825
1580518945.747,413825
1580518955.747,413825
1580518965.748,413827
1580518975.747,413827
1580518985.747,413827
1580518995.747,413827
1580519005.747,413827
1580519015.747,413828
1580519025.747,413828
1580519035.747,413828
1580519045.748,413828
1580519055.747,413828
1580519065.747,413829
1580519075.747,413830
1580519085.747,413830
1580519095.747,413830
1580519105.747,413830
1580519115.747,413831
1580519125.747,413832
1580519135.748,413832
1580519145.747,413832
1580519155.747,413832
1580519165.747,413833
1580519175.747,413834
1580519185.747,413834
1580519195.747,413834
1580519205.747,413835
1580519215.747,413836
1580519225.747,413837
1580519235.747,413838
1580519245.748,413842
1580519255.749,413842
1580519265.747,413842
1580519275.747,413843
1580519285.747,413843
1580519295.747,413846
1580519305.747,413848
1580519315.747,413848
1580519325.747,413849
1580519335.747,413850
1580519345.747,413850
1580519355.747,413850
1580519365.747,413851
1580519375.747,413852
1580519385.748,413852
1580519395.747,413853
1580519405.747,413853
1580519415.747,413854
1580519425.747,413854
1580519435.747,413854
1580519445.747,413855
1580519455.747,413856
1580519465.747,413856
1580519475.748,413856
1580519485.748,413856
1580519495.749,413858
1580519505.747,413859
1580519515.747,413860
1580519525.749,413861
1580519535.747,413862
1580519545.747,413864
1580519555.749,413864
1580519565.747,413864
1580519575.747,413865
1580519585.747,413866
1580519595.747,413866
1580519605.747,413866
1580519615.747,413867
1580519625.748,413868
1580519635.747,413869
1580519645.747,413869
1580519655.747,413870
1580519665.747,413872
1580519675.747,413873
1580519685.747,413873
1580519695.747,413874
1580519705.749,413875
1580519715.747,413876
1580519725.747,413878
1580519735.747,413878
1580519745.747,413879
1580519755.747,413880
1580519765.747,413881
1580519775.747,413882
1580519785.747,413882
1580519795.747,413882
1580519805.747,413883
1580519815.747,413884
1580519825.747,413884
1580519835.747,413884
1580519845.750,413885
1580519855.747,413886
1580519865.747,413886
1580519875.747,413887
1580519885.748,413888
1580519895.747,413890
1580519905.748,413890
1580519915.747,413890
1580519925.747,413891
1580519935.747,413892
1580519945.747,413892
1580519955.747,413892
1580519965.747,413894
1580519975.747,413895
1580519985.747,413896
1580519995.747,413898
1580520005.748,413898
1580520015.747,413899
1580520025.747,413900
1580520035.747,413902
1580520045.747,413903
1580520055.747,413904
1580520065.747,413907
1580520075.747,413909
1580520085.747,413910
1580520095.747,413911
1580520105.747,413912
1580520115.747,413912
1580520125.747,413914
1580520135.747,413915
1580520145.748,413917
1580520155.747,413917
1580520165.747,413917
1580520175.747,413918
1580520185.747,413918
1580520195.747,413920
1580520205.747,413920
1580520215.747,413920
1580520225.747,413922
1580520235.747,413922
1580520245.747,413924
1580520255.747,413925
1580520265.747,413927
1580520275.747,413927
1580520285.747,413928
1580520295.749,413928
1580520305.747,413928
1580520315.747,413929
1580520325.747,413930
1580520335.747,413930
1580520345.747,413931
1580520355.747,413932
1580520365.747,413934
1580520375.747,413934
1580520385.747,413934
1580520395.747,413935
1580520405.747,413935
1580520415.747,413936
1580520425.748,413936
1580520435.747,413937
1580520445.747,413939
1580520455.747,413940
1580520465.747,413940
1580520475.748,413940
1580520485.747,413940
1580520495.747,413941
1580520505.747,413942
1580520515.747,413944
1580520525.748,413944
1580520535.747,413944
1580520545.747,413945
1580520555.747,413946
1580520565.749,413947
1580520575.747,413948
1580520585.752,413949
1580520595.747,413950
1580520605.747,413952
1580520615.747,413952
1580520625.747,413952
1580520635.747,413952
1580520645.747,413952
1580520655.747,413953
1580520665.747,413954
1580520675.748,413954
1580520685.748,413954
1580520695.748,413954
1580520705.747,413955
1580520715.750,413957
1580520725.749,413957
1580520735.747,413957
1580520745.747,413958
1580520755.747,413958
1580520765.747,413958
1580520775.748,413958
1580520785.748,413960
1580520795.747,413961
1580520805.747,413962
1580520815.747,413963
1580520825.747,413964
1580520835.747,413965
1580520845.747,413966
1580520855.747,413967
1580520865.747,413969
1580520875.747,413970
1580520885.747,413971
1580520895.747,413971
1580520905.747,413971
1580520915.747,413971
1580520925.747,413971
1580520935.747,413971
1580520945.747,413972
1580520955.747,413974
1580520965.747,413974
1580520975.747,413974
1580520985.747,413977
1580520995.747,413979
1580521005.747,413981
1580521015.749,413982
1580521025.747,413982
1580521035.747,413984
1580521045.747,413985
1580521055.747,413985
1580521065.747,413987
1580521075.747,413989
1580521085.747,413989
1580521095.747,413989
1580521105.747,413990
1580521115.747,413991
1580521125.747,413991
1580521135.747,413992
1580521145.747,413992
1580521155.747,413993
1580521165.747,413993
1580521175.747,413993
1580521185.747,413993
1580521195.747,413994
1580521205.747,413994
1580521215.747,413995
1580521225.747,413996
1580521235.748,413996
1580521245.748,413997
1580521255.749,413998
1580521265.747,413998
1580521275.747,414000
1580521285.747,414000
1580521295.747,414000
1580521305.748,414000
1580521315.747,414001
1580521325.748,414002
1580521335.747,414002
1580521345.747,414002
1580521355.747,414003
1580521365.749,414004
1580521375.747,414005
1580521385.749,414006
1580521395.747,414006
1580521405.747,414007
1580521415.747,414008
1580521425.747,414008
1580521435.747,414009
1580521445.747,414010
1580521455.747,414010
1580521465.747,414011
1580521475.747,414011
1580521485.747,414011
1580521495.747,414012
1580521505.747,414012
1580521515.748,414013
1580521525.747,414013
1580521535.747,414013
1580521545.747,414013
1580521555.747,414014
1580521565.748,414014
1580521575.747,414016
1580521585.747,414016
1580521595.747,414016
1580521605.747,414018
1580521615.747,414020
1580521625.747,414021
1580521635.748,414022
1580521645.747,414024
1580521655.747,414025
1580521665.747,414026
1580521675.747,414028
1580521685.747,414030
1580521695.747,414030
1580521705.748,414031
1580521715.748,414031
1580521725.747,414031
1580521735.747,414032
1580521745.747,414033
1580521755.747,414034
1580521765.747,414034
1580521775.747,414035
1580521785.747,414035
1580521795.747,414035
1580521805.749,414035
1580521815.747,414035
1580521825.747,414036
1580521835.747,414038
1580521845.747,414039
1580521855.749,414040
1580521865.749,414040
1580521875.747,414041
1580521885.752,414042
1580521895.747,414042
1580521905.747,414042
1580521915.747,414043
1580521925.747,414043
1580521935.747,414043
1580521945.747,414045
1580521955.748,414049
1580521965.747,414052
1580521975.747,414052
1580521985.748,414052
1580521995.747,414052
1580522005.747,414055
1580522015.747,414056
1580522025.747,414057
1580522035.747,414057
1580522045.747,414058
1580522055.747,414058
1580522065.747,414060
1580522075.747,414060
1580522085.747,414060
1580522095.747,414060
1580522105.747,414061
1580522115.747,414062
1580522125.747,414064
1580522135.747,414065
1580522145.747,414066
1580522155.747,414067
1580522165.750,414067
1580522175.747,414069
1580522185.747,414070
1580522195.747,414071
1580522205.747,414072
1580522215.747,414073
1580522225.747,414074
1580522235.747,414075
1580522245.747,414076
1580522255.747,414077
1580522265.747,414079
1580522275.747,414080
1580522285.747,414080
1580522295.749,414080
1580522305.748,414080
1580522315.747,414082
1580522325.749,414083
1580522335.747,414084
1580522345.747,414084
1580522355.747,414086
1580522365.747,414086
1580522375.747,414087
1580522385.750,414087
1580522395.747,414088
1580522405.747,414089
1580522415.747,414089
1580522425.747,414090
1580522435.747,414091
1580522445.747,414091
1580522455.747,414091
1580522465.747,414091
1580522475.747,414091
1580522485.748,414092
1580522495.747,414093
1580522505.748,414093
1580522515.748,414093
1580522525.747,414094
1580522535.747,414094
1580522545.747,414094
1580522555.747,414094
1580522565.749,414095
1580522575.748,414098
1580522585.748,414098
1580522595.747,414099
1580522605.748,414100
1580522615.747,414100
1580522625.747,414101
1580522635.747,414102
1580522645.748,414104
1580522655.747,414104
1580522665.747,414104
1580522675.747,414105
1580522685.747,414106
1580522695.747,414106
1580522705.750,414107
1580522715.748,414107
1580522725.747,414107
1580522735.747,414108
1580522745.747,414108
1580522755.747,414108
1580522765.747,414110
1580522775.747,414111
1580522785.747,414113
1580522795.747,414113
1580522805.747,414113
1580522815.747,414113
1580522825.748,414114
1580522835.747,414114
1580522845.748,414115
1580522855.748,414116
1580522865.747,414116
1580522875.748,414116
1580522885.748,414117
1580522895.747,414117
1580522905.747,414119
1580522915.747,414121
1580522925.747,414121
1580522935.747,414122
1580522945.747,414123
1580522955.747,414124
1580522965.750,414124
1580522975.747,414124
1580522985.747,414124
1580522995.747,414124
1580523005.747,414125
1580523015.747,414125
1580523025.747,414127
1580523035.747,414127
1580523045.748,414127
1580523055.747,414128
1580523065.747,414129
1580523075.747,414129
1580523085.747,414130
1580523095.747,414130
1580523105.747,414130
1580523115.747,414130
1580523125.747,414130
1580523135.747,414132
1580523145.747,414132
1580523155.748,414132
1580523165.747,414132
1580523175.747,414134
1580523185.747,414134
1580523195.747,414134
1580523205.747,414136
1580523215.747,414136
1580523225.748,414138
1580523235.747,414139
1580523245.747,414139
1580523255.747,414139
1580523265.749,414140
1580523275.747,414140
1580523285.747,414140
1580523295.747,414140
1580523305.747,414142
1580523315.747,414142
1580523325.747,414143
1580523335.747,414143
1580523345.747,414143
1580523355.748,414143
1580523365.747,414144
1580523375.747,414144
1580523385.747,414145
1580523395.747,414145
1580523405.747,414146
1580523415.747,414147
1580523425.747,414148
1580523435.747,414148
1580523445.747,414149
1580523455.748,414149
1580523465.747,414149
1580523475.747,414149
1580523485.747,414149
1580523495.747,414149
1580523505.747,414149
1580523515.747,414150
1580523525.747,414150
1580523535.747,414152
1580523545.749,414152
1580523555.747,414154
1580523565.747,414154
1580523575.747,414155
1580523585.747,414156
1580523595.747,414156
1580523605.747,414157
1580523615.748,414157
1580523625.747,414158
1580523635.748,414158
1580523645.748,414158
1580523655.747,414158
1580523665.747,414159
1580523675.747,414160
1580523685.747,414162
1580523695.748,414163
1580523705.748,414163
1580523715.747,414164
1580523725.747,414164
1580523735.747,414164
1580523745.747,414167
1580523755.747,414167
1580523765.747,414167
1580523775.747,414167
1580523785.747,414168
1580523795.747,414168
1580523805.748,414169
1580523815.747,414170
1580523825.747,414170
1580523835.747,414170
1580523845.748,414170
1580523855.747,414170
1580523865.747,414172
1580523875.747,414172
1580523885.747,414173
1580523895.747,414174
1580523905.747,414174
1580523915.748,414175
1580523925.747,414175
1580523935.747,414175
1580523945.747,414176
1580523955.750,414177
1580523965.748,414178
1580523975.747,414178
1580523985.747,414179
1580523995.748,414180
1580524005.747,414180
1580524015.747,414181
1580524025.747,414183
1580524035.748,414183
1580524045.749,414184
1580524055.747,414184
1580524065.747,414184
1580524075.747,414185
1580524085.747,414186
1580524095.747,414186
1580524105.748,414187
1580524115.747,414188
1580524125.747,414188
1580524135.748,414189
1580524145.747,414190
1580524155.747,414190
1580524165.747,414190
1580524175.747,414191
1580524185.747,414191
1580524195.748,414192
1580524205.747,414192
1580524215.747,414193
1580524225.748,414194
1580524235.747,414195
1580524245.747,414195
1580524255.748,414195
1580524265.747,414195
1580524275.748,414197
1580524285.747,414199
1580524295.747,414199
1580524305.747,414199
1580524315.747,414199
1580524325.747,414199
1580524335.748,414199
1580524345.748,414200
1580524355.747,414201
1580524365.747,414201
1580524375.747,414202
1580524385.747,414202
1580524395.748,414202
1580524405.747,414202
1580524415.747,414202
1580524425.751,414203
1580524435.747,414205
1580524445.747,414205
1580524455.747,414205
1580524465.747,414206
1580524475.747,414206
1580524485.749,414207
1580524495.747,414207
1580524505.747,414208
1580524515.747,414208
1580524525.747,414209
1580524535.748,414209
1580524545.749,414210
1580524555.747,414210
1580524565.747,414210
1580524575.747,414211
1580524585.749,414212
1580524595.749,414214
1580524605.748,414215
1580524615.747,414215
1580524625.748,414218
1580524635.747,414219
1580524645.747,414219
1580524655.747,414219
1580524665.748,414220
1580524675.748,414221
1580524685.747,414222
1580524695.747,414223
1580524705.748,414224
1580524715.747,414225
1580524725.747,414226
1580524735.747,414228
1580524745.747,414228
1580524755.748,414228
1580524765.747,414229
1580524775.747,414229
1580524785.747,414230
1580524795.747,414232
1580524805.747,414232
1580524815.747,414233
1580524825.747,414234
1580524835.747,414235
1580524845.747,414235
1580524855.747,414235
1580524865.748,414236
1580524875.747,414236
1580524885.747,414236
1580524895.747,414236
1580524905.747,414237
1580524915.747,414238
1580524925.747,414238
1580524935.747,414238
1580524945.747,414238
1580524955.747,414240
1580524965.747,414240
1580524975.749,414242
1580524985.747,414242
1580524995.747,414242
1580525005.747,414243
1580525015.747,414245
1580525025.747,414248
1580525035.747,414248
1580525045.750,414248
1580525055.747,414248
1580525065.747,414249
1580525075.747,414249
1580525085.747,414249
1580525095.747,414250
1580525105.747,414250
1580525115.747,414250
1580525125.747,414250
1580525135.747,414250
1580525145.747,414252
1580525155.747,414252
1580525165.747,414253
1580525175.747,414254
1580525185.747,414254
1580525195.747,414255
1580525205.747,414256
1580525215.747,414256
1580525225.748,414257
1580525235.748,414257
1580525245.747,414257
1580525255.749,414258
1580525265.747,414258
1580525275.748,414258
1580525285.747,414259
1580525295.747,414261
1580525305.747,414261
1580525315.747,414262
1580525325.747,414264
1580525335.752,414264
1580525345.747,414264
1580525355.749,414266
1580525365.747,414266
1580525375.749,414268
1580525385.747,414269
1580525395.747,414269
1580525405.747,414270
1580525415.748,414271
1580525425.747,414271
1580525435.751,414272
1580525445.747,414272
1580525455.747,414273
1580525465.748,414274
1580525475.747,414274
1580525485.747,414275
1580525495.747,414277
1580525505.747,414277
1580525515.747,414277
1580525525.747,414278
1580525535.747,414279
1580525545.747,414280
1580525555.748,414280
1580525565.747,414281
1580525575.749,414282
1580525585.748,414283
1580525595.747,414283
1580525605.747,414283
1580525615.749,414284
1580525625.748,414285
1580525635.748,414286
1580525645.747,414287
1580525655.748,414287
1580525665.747,414288
1580525675.749,414288
1580525685.749,414288
1580525695.748,414290
1580525705.748,414290
1580525715.747,414290
1580525725.747,414291
1580525735.747,414291
1580525745.747,414291
1580525755.747,414291
1580525765.748,414292
1580525775.747,414292
1580525785.747,414293
1580525795.747,414294
1580525805.747,414294
1580525815.748,414294
1580525825.748,414294
1580525835.748,414295
1580525845.747,414295
1580525855.747,414296
1580525865.749,414296
1580525875.747,414297
1580525885.749,414298
1580525895.747,414299
1580525905.747,414300
1580525915.747,414303
