epoch,value
1580212397.215,53312
1580212407.197,53312
1580212417.197,53312
1580212427.197,53312
1580212437.198,53312
1580212447.197,53312
1580212457.197,53312
1580212467.197,53312
1580212477.197,53312
1580212487.196,53312
1580212497.197,53312
1580212507.197,53312
1580212517.196,53312
1580212527.197,53313
1580212537.197,53313
1580212547.198,53313
1580212557.196,53313
1580212567.197,53313
1580212577.200,53313
1580212587.197,53313
1580212597.197,53313
1580212607.197,53313
1580212617.198,53313
1580212627.198,53313
1580212637.197,53313
1580212647.196,53313
1580212657.197,53313
1580212667.196,53313
1580212677.196,53313
1580212687.197,53313
1580212697.196,53313
1580212707.196,53313
1580212717.197,53313
1580212727.197,53313
1580212737.196,53313
1580212747.197,53313
1580212757.196,53313
1580212767.197,53313
1580212777.196,53313
1580212787.199,53315
1580212797.196,53315
1580212807.197,53315
1580212817.197,53315
1580212827.196,53315
1580212837.199,53315
1580212847.197,53315
1580212857.197,53318
1580212867.197,53318
1580212877.197,53318
1580212887.197,53318
1580212897.197,53318
1580212907.197,53318
1580212917.198,53318
1580212927.197,53318
1580212937.196,53318
1580212947.197,53318
1580212957.198,53318
1580212967.198,53318
1580212977.197,53318
1580212987.196,53318
1580212997.197,53318
1580213007.196,53318
1580213017.197,53318
1580213027.197,53318
1580213037.197,53318
1580213047.197,53318
1580213057.198,53318
1580213067.198,53318
1580213077.196,53318
1580213087.196,53318
1580213097.197,53318
1580213107.197,53318
1580213117.197,53318
1580213127.196,53318
1580213137.197,53318
1580213147.196,53318
1580213157.198,53318
1580213167.197,53318
1580213177.197,53318
1580213187.197,53318
1580213197.197,53318
1580213207.197,53318
1580213217.197,53318
1580213227.197,53318
1580213237.196,53318
1580213247.199,53318
1580213257.197,53318
1580213267.197,53318
1580213277.196,53318
1580213287.199,53318
1580213297.199,53318
1580213307.197,53318
1580213317.197,53320
1580213327.197,53320
1580213337.197,53320
1580213347.197,53320
1580213357.196,53320
1580213367.197,53320
1580213377.196,53320
1580213387.196,53320
1580213397.197,53320
1580213407.196,53320
1580213417.199,53320
1580213427.197,53320
1580213437.197,53320
1580213447.197,53320
1580213457.197,53320
1580213467.198,53320
1580213477.197,53320
1580213487.197,53320
1580213497.198,53320
1580213507.197,53320
1580213517.198,53320
1580213527.197,53320
1580213537.197,53320
1580213547.197,53320
1580213557.197,53320
1580213567.197,53320
1580213577.196,53320
1580213587.198,53320
1580213597.197,53320
1580213607.197,53320
1580213617.198,53320
1580213627.196,53320
1580213637.199,53320
1580213647.197,53320
1580213657.197,53320
1580213667.198,53320
1580213677.198,53320
1580213687.197,53320
1580213697.197,53320
1580213707.197,53320
1580213717.197,53320
1580213727.197,53320
1580213737.196,53320
1580213747.197,53320
1580213757.197,53320
1580213767.196,53320
1580213777.198,53320
1580213787.197,53320
1580213797.199,53320
1580213807.197,53320
1580213817.197,53320
1580213827.197,53320
1580213837.197,53320
1580213847.197,53320
1580213857.197,53322
1580213867.197,53322
1580213877.197,53322
1580213887.197,53322
1580213897.197,53322
1580213907.197,53322
1580213917.196,53322
1580213927.196,53322
1580213937.197,53323
1580213947.198,53323
1580213957.197,53323
1580213967.196,53323
1580213977.197,53323
1580213987.197,53323
1580213997.198,53323
1580214007.196,53323
1580214017.196,53323
1580214027.197,53323
1580214037.197,53323
1580214047.197,53323
1580214057.197,53323
1580214067.200,53324
1580214077.197,53324
1580214087.197,53324
1580214097.197,53324
1580214107.197,53324
1580214117.197,53324
1580214127.196,53324
1580214137.197,53324
1580214147.197,53324
1580214157.196,53324
1580214167.199,53325
1580214177.196,53325
1580214187.196,53325
1580214197.197,53325
1580214207.198,53325
1580214217.196,53325
1580214227.197,53325
1580214237.197,53325
1580214247.197,53325
1580214257.197,53325
1580214267.197,53325
1580214277.196,53325
1580214287.197,53326
1580214297.197,53326
1580214307.197,53326
1580214317.197,53326
1580214327.197,53328
1580214337.198,53328
1580214347.198,53328
1580214357.197,53328
1580214367.196,53328
1580214377.197,53328
1580214387.197,53328
1580214397.197,53328
1580214407.197,53328
1580214417.196,53330
1580214427.199,53330
1580214437.197,53330
1580214447.198,53330
1580214457.196,53330
1580214467.197,53330
1580214477.199,53330
1580214487.196,53330
1580214497.197,53330
1580214507.197,53330
1580214517.198,53330
1580214527.197,53330
1580214537.196,53330
1580214547.197,53332
1580214557.196,53332
1580214567.197,53333
1580214577.197,53334
1580214587.197,53334
1580214597.197,53335
1580214607.198,53336
1580214617.197,53336
1580214627.197,53336
1580214637.197,53336
1580214647.197,53336
1580214657.197,53336
1580214667.197,53336
1580214677.197,53336
1580214687.196,53336
1580214697.198,53336
1580214707.197,53336
1580214717.197,53336
1580214727.197,53336
1580214737.197,53336
1580214747.197,53336
1580214757.198,53336
1580214767.197,53336
1580214777.197,53336
1580214787.196,53336
1580214797.197,53336
1580214807.198,53336
1580214817.196,53336
1580214827.197,53336
1580214837.196,53336
1580214847.197,53336
1580214857.197,53336
1580214867.197,53336
1580214877.197,53336
1580214887.197,53336
1580214897.197,53336
1580214907.197,53336
1580214917.197,53336
1580214927.196,53336
1580214937.197,53336
1580214947.196,53336
1580214957.198,53336
1580214967.197,53336
1580214977.197,53337
1580214987.197,53338
1580214997.197,53338
1580215007.196,53338
1580215017.196,53338
1580215027.198,53338
1580215037.196,53338
1580215047.196,53338
1580215057.196,53338
1580215067.197,53339
1580215077.198,53339
1580215087.196,53339
1580215097.196,53339
1580215107.198,53339
1580215117.197,53339
1580215127.196,53339
1580215137.196,53339
1580215147.197,53339
1580215157.196,53339
1580215167.196,53339
