epoch,value
1580479963.602,20040
1580479973.583,20040
1580479983.583,20040
1580479993.582,20040
1580480003.582,20040
1580480013.582,20040
1580480023.583,20040
1580480033.582,20040
1580480043.582,20040
1580480053.582,20040
1580480063.582,20040
1580480073.582,20040
1580480083.582,20040
1580480093.583,20040
1580480103.587,20040
1580480113.585,20040
1580480123.582,20040
1580480133.583,20040
1580480143.582,20040
1580480153.583,20040
1580480163.582,20040
1580480173.583,20040
1580480183.582,20040
1580480193.582,20040
1580480203.583,20040
1580480213.583,20040
1580480223.582,20040
1580480233.582,20040
1580480243.582,20040
1580480253.582,20040
1580480263.584,20040
1580480273.582,20040
1580480283.583,20040
1580480293.582,20040
1580480303.583,20040
1580480313.582,20040
1580480323.582,20040
1580480333.582,20040
1580480343.582,20040
1580480353.582,20040
1580480363.582,20040
1580480373.582,20040
1580480383.582,20040
1580480393.582,20040
1580480403.582,20040
1580480413.582,20040
1580480423.582,20040
1580480433.583,20040
1580480443.582,20040
1580480453.582,20040
1580480463.582,20040
1580480473.582,20040
1580480483.582,20040
1580480493.582,20040
1580480503.582,20040
1580480513.583,20040
1580480523.584,20040
1580480533.582,20040
1580480543.582,20040
1580480553.583,20040
1580480563.582,20041
1580480573.583,20042
1580480583.582,20042
1580480593.583,20042
1580480603.585,20042
1580480613.583,20042
1580480623.584,20042
1580480633.582,20042
1580480643.583,20042
1580480653.582,20042
1580480663.582,20042
1580480673.585,20042
1580480683.582,20042
1580480693.583,20042
1580480703.583,20042
1580480713.583,20042
1580480723.582,20042
1580480733.582,20042
1580480743.583,20042
1580480753.583,20042
1580480763.582,20042
1580480773.582,20042
1580480783.582,20042
1580480793.582,20042
1580480803.582,20042
1580480813.582,20042
1580480823.582,20042
1580480833.582,20042
1580480843.583,20042
1580480853.583,20042
1580480863.582,20042
1580480873.582,20042
1580480883.582,20042
1580480893.582,20042
1580480903.582,20042
1580480913.582,20044
1580480923.582,20044
1580480933.582,20044
1580480943.582,20044
1580480953.582,20044
1580480963.582,20044
1580480973.582,20044
1580480983.582,20044
1580480993.584,20044
1580481003.582,20044
1580481013.582,20044
1580481023.582,20044
1580481033.582,20044
1580481043.583,20044
1580481053.582,20044
1580481063.582,20044
1580481073.582,20044
1580481083.583,20044
1580481093.582,20044
1580481103.582,20044
1580481113.582,20044
1580481123.583,20044
1580481133.582,20044
1580481143.582,20044
1580481153.582,20044
1580481163.583,20044
1580481173.582,20044
1580481183.582,20044
1580481193.582,20044
1580481203.583,20044
1580481213.582,20044
1580481223.582,20044
1580481233.582,20044
1580481243.583,20044
1580481253.582,20044
1580481263.582,20044
1580481273.582,20044
1580481283.583,20044
1580481293.582,20044
1580481303.582,20044
1580481313.583,20044
1580481323.582,20044
1580481333.582,20044
1580481343.582,20044
1580481353.582,20044
1580481363.582,20044
1580481373.582,20044
1580481383.582,20044
1580481393.582,20044
1580481403.582,20044
1580481413.582,20044
1580481423.582,20044
1580481433.583,20044
1580481443.583,20044
1580481453.582,20044
1580481463.582,20044
1580481473.583,20044
1580481483.583,20044
1580481493.582,20044
1580481503.582,20044
1580481513.585,20044
1580481523.582,20044
