epoch,value
1580661785.118,0
1580661795.118,0
1580661805.118,0
1580661815.120,0
1580661825.118,0
1580661835.118,0
1580661845.118,0
1580661855.118,0
1580661865.118,0
1580661875.118,0
1580661885.118,0
1580661895.118,0
1580661905.118,0
1580661915.120,0
1580661925.118,0
1580661935.118,0
1580661955.118,0
1580661965.118,0
1580661975.118,0
1580661985.118,1
1580661995.118,1
1580662005.122,1
1580662015.118,1
1580662025.118,1
1580662035.118,1
1580662045.118,1
1580662055.118,1
1580662065.118,1
1580662075.118,1
1580662085.118,1
1580662095.118,1
1580662105.118,1
1580662115.118,1
1580662125.118,1
1580662135.123,1
1580662145.118,1
1580662155.118,1
1580662165.118,1
1580662175.118,1
1580662185.118,1
1580662195.118,1
1580662205.118,1
1580662215.118,1
1580662225.118,2
1580662235.118,2
1580662245.118,2
1580662255.118,2
1580662265.118,2
1580662275.118,2
1580662285.118,2
1580662295.122,2
1580662305.118,2
1580662315.118,2
1580662325.118,2
1580662335.118,2
1580662345.118,2
1580662355.118,2
1580662365.122,2
1580662375.118,2
1580662385.118,2
1580662395.118,2
1580662405.118,3
1580662425.118,3
1580662435.118,3
1580662445.118,3
1580662455.118,3
1580662465.118,3
1580662475.118,3
1580662485.118,3
1580662495.118,3
1580662505.118,3
1580662515.122,3
1580662525.118,3
1580662535.118,3
1580662545.118,3
1580662555.118,3
1580662565.118,3
1580662575.122,3
1580662585.118,3
1580662595.118,4
1580662605.118,4
1580662615.119,4
1580662625.118,4
1580662635.118,4
1580662645.118,4
1580662655.118,4
1580662665.118,4
1580662685.119,4
1580662695.118,4
1580662705.118,4
1580662715.121,4
1580662725.118,4
1580662735.118,4
1580662745.118,4
1580662755.118,4
1580662765.118,5
1580662775.118,5
1580662785.118,5
1580662795.118,5
1580662805.118,5
1580662815.118,5
1580662825.118,5
1580662835.118,5
1580662845.118,5
1580662855.118,5
1580662865.118,5
1580662875.118,5
1580662885.118,5
1580662895.118,5
1580662905.118,5
1580662915.118,5
1580662925.118,5
1580662935.118,5
1580662945.118,5
1580662955.118,5
1580662965.118,5
1580662975.118,5
1580662985.118,5
1580662995.118,5
1580663005.118,6
1580663015.122,6
1580663025.118,6
1580663035.122,6
1580663045.118,6
1580663055.118,6
1580663065.118,6
1580663075.118,6
1580663085.118,6
1580663095.118,6
1580663105.118,6
1580663115.118,6
1580663125.118,6
1580663135.118,6
1580663145.118,6
1580663155.118,6
1580663165.118,6
1580663175.118,7
1580663185.118,7
1580663195.118,7
1580663205.118,7
1580663215.118,7
1580663225.118,7
1580663235.118,7
1580663245.118,7
1580663255.118,7
1580663265.118,7
1580663275.118,7
1580663285.118,7
1580663295.118,7
1580663305.118,7
1580663315.118,7
1580663325.118,7
1580663335.118,7
1580663345.118,7
1580663355.118,7
1580663365.118,7
1580663375.118,8
1580663385.118,8
1580663395.118,8
1580663405.118,8
1580663415.118,8
1580663425.118,8
1580663435.118,8
1580663445.118,8
1580663455.118,8
1580663465.122,8
1580663475.118,8
1580663485.118,8
1580663495.118,8
1580663505.118,8
1580663515.118,9
1580663525.118,9
1580663535.118,9
1580663545.118,9
1580663555.118,9
1580663565.122,9
1580663575.118,9
1580663585.118,9
1580663595.118,9
1580663605.118,9
1580663615.118,9
1580663625.118,9
1580663635.118,9
1580663645.118,9
1580663655.118,9
1580663665.118,9
1580663675.118,9
1580663685.118,9
1580663695.118,9
1580663705.118,10
1580663715.118,10
1580663725.118,10
1580663735.118,10
1580663745.118,10
1580663755.118,10
1580663765.118,10
1580663775.118,10
1580663785.118,10
1580663795.118,10
1580663815.118,10
1580663825.118,10
1580663835.118,10
1580663845.118,10
1580663855.119,10
1580663865.118,10
1580663875.118,10
1580663885.118,10
1580663895.118,10
1580663905.118,10
1580663915.118,11
1580663925.118,11
1580663935.118,11
1580663945.118,11
1580663955.118,11
1580663965.118,11
1580663975.118,11
1580663985.118,11
1580663995.118,11
1580664015.118,11
1580664025.118,11
1580664045.118,11
1580664055.118,11
1580664065.118,11
1580664075.118,11
1580664085.118,11
1580664095.118,11
1580664105.118,11
1580664115.118,11
1580664125.118,11
1580664135.118,11
1580664145.118,12
1580664155.118,12
1580664165.118,12
1580664175.118,12
1580664185.118,12
1580664195.118,12
1580664205.118,12
1580664215.118,12
1580664235.118,12
1580664245.118,12
1580664255.118,12
1580664265.118,12
1580664275.118,12
1580664285.118,12
1580664295.118,12
1580664305.118,12
1580664325.118,12
1580664335.118,12
1580664345.118,12
1580664355.118,12
1580664365.118,12
1580664375.118,12
1580664385.118,12
1580664395.118,12
1580664405.118,12
1580664415.118,12
1580664425.118,12
1580664435.118,13
1580664445.118,13
1580664455.118,13
1580664465.118,13
1580664475.118,13
1580664485.118,13
1580664495.118,13
1580664505.118,13
1580664515.118,13
1580664525.118,13
1580664535.118,13
1580664545.118,13
1580664555.118,13
1580664565.118,13
1580664575.118,13
1580664585.118,13
1580664595.118,13
1580664605.118,13
1580664615.118,13
1580664625.118,13
1580664635.118,13
1580664645.118,13
1580664655.118,13
1580664665.118,14
1580664675.118,14
1580664685.118,14
1580664695.122,14
1580664705.118,14
1580664715.118,14
1580664725.118,14
1580664735.118,14
1580664745.118,14
1580664755.118,14
1580664765.118,14
1580664775.118,14
1580664785.118,14
1580664795.118,14
1580664805.118,14
1580664815.118,14
1580664825.118,14
1580664835.118,14
1580664845.118,14
1580664855.118,14
1580664865.118,14
1580664875.118,14
1580664885.118,14
1580664895.118,14
1580664905.118,14
1580664915.118,14
1580664925.118,14
1580664935.118,15
1580664945.118,15
1580664955.118,15
1580664965.118,15
1580664975.118,15
1580664985.118,15
1580664995.118,15
1580665005.118,15
1580665015.118,15
1580665025.118,15
1580665035.118,15
1580665045.118,15
1580665055.118,15
1580665065.122,15
1580665075.118,15
1580665085.137,15
1580665105.118,16
1580665115.118,16
1580665125.118,16
1580665135.118,16
1580665145.118,16
1580665155.118,16
1580665165.118,16
1580665175.118,16
1580665185.118,16
1580665195.118,16
1580665205.118,16
1580665215.118,16
1580665225.118,16
1580665235.118,16
1580665245.118,16
1580665255.118,16
1580665265.118,17
1580665275.118,17
1580665285.118,17
1580665305.118,17
1580665315.118,17
1580665335.118,17
1580665345.118,17
1580665355.118,17
1580665365.118,17
1580665375.118,17
1580665385.118,17
1580665395.118,17
1580665405.122,17
1580665415.118,17
1580665425.118,17
1580665435.118,17
1580665445.118,17
1580665455.118,17
1580665465.118,17
1580665475.118,17
1580665485.118,17
1580665495.118,17
1580665505.118,17
1580665515.118,17
1580665525.118,17
1580665535.118,17
1580665545.118,18
1580665555.118,18
1580665565.118,18
1580665575.118,18
1580665585.118,18
1580665595.118,18
1580665605.118,18
1580665615.118,18
1580665625.118,18
1580665635.118,18
1580665645.118,18
1580665655.118,18
1580665665.118,18
1580665675.118,18
1580665695.118,18
1580665705.118,18
1580665715.118,18
1580665725.118,18
1580665735.118,18
1580665745.118,18
1580665755.118,18
1580665765.122,18
1580665775.118,19
1580665785.118,19
1580665795.118,19
1580665805.118,19
1580665815.118,19
1580665825.118,19
1580665835.118,19
1580665845.118,19
1580665855.118,19
1580665865.118,19
1580665875.118,19
1580665885.118,19
1580665895.118,19
1580665905.118,19
1580665915.118,19
1580665925.118,19
1580665935.118,19
1580665945.118,19
1580665955.118,19
1580665965.118,19
1580665985.118,19
1580665995.118,19
1580666005.118,19
1580666015.118,19
1580666025.118,20
1580666035.121,20
1580666055.118,20
1580666065.118,20
1580666075.118,20
1580666085.118,20
1580666105.118,20
1580666115.118,21
1580666125.118,21
1580666135.118,21
1580666145.118,21
1580666155.118,21
1580666165.118,21
1580666175.118,21
1580666185.118,21
1580666195.118,21
1580666205.118,21
1580666215.118,21
1580666225.118,21
1580666235.118,21
1580666245.118,21
1580666255.118,21
1580666265.118,21
1580666275.118,21
1580666285.118,21
1580666295.118,21
1580666305.118,21
1580666315.118,21
1580666325.118,21
1580666335.118,22
1580666345.118,22
1580666355.118,22
1580666365.118,22
1580666375.118,22
1580666385.118,22
1580666395.118,22
1580666405.118,22
1580666415.118,22
1580666425.118,22
1580666435.118,22
1580666445.118,22
1580666455.118,22
1580666465.118,22
1580666475.118,22
1580666485.118,22
1580666505.118,22
1580666515.118,22
1580666525.118,22
1580666535.118,22
1580666545.118,23
1580666555.118,23
1580666565.118,23
1580666575.118,23
1580666585.118,23
1580666595.118,23
1580666605.118,23
1580666615.118,23
1580666625.118,23
1580666645.118,23
1580666665.118,23
1580666675.118,23
1580666685.118,23
1580666695.118,23
1580666705.118,23
1580666715.118,23
1580666725.118,23
1580666735.118,23
1580666745.118,23
1580666755.118,23
1580666765.118,23
1580666775.118,24
1580666785.118,24
1580666795.118,24
1580666805.118,24
1580666815.118,24
1580666825.118,24
1580666835.118,24
1580666845.118,24
1580666855.118,24
1580666865.118,24
1580666875.122,24
1580666885.118,24
1580666895.118,24
1580666905.118,24
1580666915.118,24
1580666925.118,24
1580666935.118,25
1580666945.118,25
1580666955.118,25
1580666965.118,25
1580666975.118,25
1580666985.118,25
1580666995.118,25
1580667005.118,25
1580667015.118,25
1580667025.118,25
1580667035.118,25
1580667045.118,25
1580667055.118,25
1580667065.118,25
1580667075.118,25
1580667085.118,25
1580667095.118,25
1580667105.118,26
1580667115.118,26
1580667125.118,26
1580667135.118,26
1580667145.118,26
1580667155.118,26
1580667165.118,26
1580667175.118,26
1580667195.118,26
1580667205.118,26
1580667215.118,26
1580667225.118,26
1580667235.118,26
1580667245.118,26
1580667255.118,26
1580667265.118,26
1580667275.118,26
1580667285.118,26
1580667295.118,26
1580667305.118,26
1580667315.118,26
1580667325.118,26
1580667335.118,26
1580667345.118,27
1580667355.118,27
1580667365.118,27
1580667375.118,27
1580667385.118,27
1580667395.118,27
1580667405.118,27
1580667415.118,27
1580667425.118,27
1580667435.118,27
1580667445.118,27
1580667455.118,27
1580667465.118,27
1580667475.118,27
1580667485.118,27
1580667495.118,27
1580667505.118,27
1580667515.118,28
1580667525.118,28
1580667535.118,28
1580667545.118,28
1580667555.118,28
1580667565.118,28
1580667575.118,28
1580667585.118,28
1580667595.118,28
1580667605.118,28
1580667615.118,28
1580667625.118,28
1580667635.118,28
1580667645.118,28
1580667655.118,28
1580667665.118,29
1580667675.118,29
1580667685.118,29
1580667695.118,29
1580667705.118,29
1580667715.118,29
1580667725.118,29
1580667735.118,29
1580667745.118,29
1580667755.118,29
1580667765.118,29
1580667775.118,29
1580667785.118,29
1580667795.118,29
1580667805.118,29
1580667815.118,29
1580667825.118,29
1580667835.118,30
1580667845.121,30
1580667855.118,30
1580667865.118,30
1580667875.118,30
1580667885.118,30
1580667895.118,30
1580667905.118,30
1580667915.118,30
1580667925.118,30
1580667935.118,30
1580667945.118,30
1580667955.118,31
1580667965.118,31
1580667975.118,31
1580667985.118,31
1580667995.118,31
1580668005.118,31
1580668015.118,31
1580668025.118,31
1580668035.118,31
1580668045.118,31
1580668055.118,31
1580668065.118,31
1580668075.118,31
1580668085.118,31
1580668095.118,31
1580668105.118,31
1580668115.118,31
1580668125.118,31
1580668135.118,32
1580668145.118,32
1580668155.118,32
1580668165.118,32
1580668175.118,32
1580668185.118,32
1580668195.118,32
1580668205.118,32
1580668215.118,32
1580668225.118,32
1580668235.118,32
1580668245.118,32
1580668255.118,32
1580668265.118,32
1580668275.118,32
1580668285.118,33
1580668295.118,33
1580668305.118,33
1580668315.118,33
1580668325.118,33
1580668335.118,33
1580668345.118,33
1580668355.118,33
1580668365.118,33
1580668375.118,33
1580668385.118,33
1580668395.118,33
1580668405.118,33
1580668415.118,33
1580668425.118,33
1580668435.118,33
1580668445.118,33
1580668455.118,33
1580668465.118,33
1580668475.118,33
1580668485.118,33
1580668495.118,33
1580668505.118,34
1580668515.118,34
1580668525.118,34
1580668535.118,34
1580668545.118,34
1580668555.118,34
1580668565.118,34
1580668575.118,34
1580668585.118,34
1580668595.118,35
1580668605.118,35
1580668625.118,35
1580668635.118,35
1580668645.118,35
1580668655.118,35
1580668665.118,35
1580668675.118,35
1580668685.118,35
1580668695.118,35
1580668705.118,35
1580668715.118,35
1580668725.118,35
1580668735.118,35
1580668745.118,35
1580668755.118,35
1580668765.118,35
1580668775.118,35
1580668785.118,35
1580668795.118,35
1580668805.118,35
1580668815.118,35
1580668825.118,35
1580668835.118,35
1580668845.118,35
1580668855.118,36
1580668865.118,36
1580668875.118,36
1580668885.118,36
1580668895.118,36
1580668905.118,36
1580668915.118,36
1580668925.118,36
1580668935.118,36
1580668945.118,36
1580668955.118,36
1580668965.118,36
1580668975.118,36
1580668985.118,36
1580668995.118,36
1580669005.118,36
1580669015.118,36
1580669025.118,36
1580669035.118,36
1580669045.118,36
1580669055.118,36
1580669065.118,36
1580669075.118,36
1580669085.118,36
1580669095.118,36
1580669105.118,37
1580669115.118,37
1580669125.118,37
1580669135.118,37
1580669145.118,37
1580669155.118,37
1580669165.118,37
1580669175.118,37
1580669185.118,37
1580669195.118,37
1580669205.118,37
1580669215.118,37
1580669225.118,37
1580669235.118,37
1580669245.118,37
1580669255.118,38
1580669265.118,38
1580669275.118,38
1580669285.118,38
1580669295.118,38
1580669305.118,38
1580669315.118,38
1580669325.118,38
1580669335.118,38
1580669345.118,38
1580669355.118,38
1580669365.118,38
1580669375.118,38
1580669385.118,38
1580669395.118,38
1580669405.118,38
1580669415.118,38
1580669425.118,38
1580669435.118,38
1580669445.118,39
1580669455.118,39
1580669465.118,39
1580669475.118,39
1580669485.118,39
1580669495.118,39
1580669505.118,39
1580669515.118,39
1580669525.118,39
1580669535.118,39
1580669545.118,39
1580669555.118,39
1580669565.118,39
1580669575.120,39
1580669585.118,39
1580669595.118,39
1580669605.118,39
1580669615.118,39
1580669625.118,39
1580669635.118,40
1580669645.118,40
1580669665.118,40
1580669675.118,40
1580669685.118,40
1580669695.118,40
1580669705.118,40
1580669715.118,40
1580669725.118,40
1580669735.118,40
1580669745.118,40
1580669755.118,40
1580669765.118,40
1580669775.118,40
1580669785.118,41
1580669795.118,41
1580669805.118,41
1580669815.118,41
1580669825.118,41
1580669835.122,41
1580669845.118,41
1580669855.118,41
1580669865.118,41
1580669875.118,41
1580669885.118,41
1580669895.118,41
1580669905.118,41
1580669915.118,41
