epoch,value
1580474569.392,0
1580474579.392,0
1580474589.392,0
1580474599.393,0
1580474609.392,0
1580474619.397,2
1580474629.392,2
1580474639.392,2
1580474649.392,3
1580474659.392,6
1580474669.392,11
1580474679.392,12
1580474689.392,12
1580474699.392,12
1580474709.392,12
1580474719.392,12
1580474729.392,12
1580474739.392,16
1580474749.392,16
1580474759.392,16
1580474769.392,16
1580474779.392,17
1580474789.392,17
1580474799.392,17
1580474809.392,17
1580474819.392,17
1580474829.392,17
1580474839.392,17
1580474849.392,22
1580474859.392,24
1580474869.393,31
1580474879.392,37
1580474889.392,37
1580474899.392,37
1580474909.392,37
1580474919.392,37
1580474929.392,37
1580474939.392,37
1580474949.392,37
1580474959.392,37
1580474969.392,37
1580474979.392,37
1580474989.392,37
1580474999.392,37
1580475009.392,37
1580475019.392,37
1580475029.392,37
1580475039.392,37
1580475049.392,37
1580475059.392,37
1580475069.398,37
1580475079.392,37
1580475089.392,37
1580475099.392,38
1580475109.392,38
1580475119.392,38
1580475129.392,38
1580475139.392,38
1580475149.392,38
1580475159.394,38
1580475169.392,38
1580475179.392,38
1580475189.392,38
1580475199.392,38
1580475209.392,38
1580475219.392,38
1580475229.392,38
1580475239.392,38
1580475249.392,38
1580475259.393,38
1580475269.392,38
1580475279.392,38
1580475289.392,38
1580475299.392,38
1580475309.392,38
1580475319.392,38
1580475329.392,38
1580475339.392,38
1580475349.392,38
1580475359.392,38
1580475369.392,38
1580475379.392,38
1580475389.392,38
1580475399.392,38
1580475409.392,38
1580475419.392,38
1580475429.392,38
1580475439.392,38
1580475449.397,38
1580475459.392,38
1580475469.392,38
1580475479.394,38
1580475489.392,38
1580475499.392,38
1580475509.392,38
1580475519.392,38
1580475529.392,38
1580475539.392,38
1580475549.397,38
1580475559.392,38
1580475569.392,38
1580475579.392,38
1580475589.392,38
1580475599.392,38
1580475609.392,38
1580475619.392,38
1580475629.392,38
1580475639.392,38
1580475649.392,38
1580475659.392,38
1580475669.392,38
1580475679.392,38
1580475689.392,38
1580475699.392,38
1580475709.392,38
1580475719.392,38
1580475729.392,38
1580475739.392,39
1580475749.400,39
1580475759.392,39
1580475769.392,39
1580475779.392,39
1580475789.392,39
1580475799.392,39
1580475809.392,39
1580475819.392,39
1580475829.392,39
1580475839.392,39
1580475849.392,39
1580475859.392,39
1580475869.392,39
1580475879.392,39
1580475889.392,39
1580475899.393,39
1580475909.392,39
1580475919.392,39
1580475929.392,39
1580475939.392,39
1580475949.392,39
1580475959.392,39
1580475969.393,39
1580475979.392,39
1580475989.392,39
1580475999.397,39
1580476009.392,39
1580476019.392,39
1580476029.392,39
1580476039.392,39
1580476049.392,39
1580476059.392,39
1580476069.392,39
1580476079.392,39
1580476089.392,39
1580476099.392,39
