epoch,value
1580485179.468,41306
1580485189.451,41306
1580485199.453,41306
1580485209.451,41306
1580485219.451,41306
1580485229.452,41306
1580485239.451,41306
1580485249.453,41306
1580485259.451,41306
1580485269.451,41307
1580485279.451,41308
1580485289.453,41308
1580485299.451,41308
1580485309.451,41308
1580485319.451,41308
1580485329.452,41308
1580485339.452,41308
1580485349.452,41308
1580485359.452,41309
1580485369.452,41309
1580485379.451,41309
1580485389.451,41309
1580485399.452,41309
1580485409.451,41309
1580485419.452,41309
1580485429.451,41309
1580485439.453,41310
1580485449.451,41310
1580485459.451,41310
1580485469.455,41310
1580485479.452,41310
1580485489.451,41310
1580485499.451,41310
1580485509.452,41310
1580485519.451,41311
1580485529.453,41311
1580485539.452,41311
1580485549.451,41311
1580485559.451,41311
1580485569.451,41311
1580485579.451,41311
1580485589.452,41311
1580485599.452,41311
1580485609.451,41311
1580485619.455,41312
1580485629.454,41312
1580485639.451,41312
1580485649.451,41312
1580485659.453,41312
1580485669.452,41312
1580485679.453,41312
1580485689.451,41312
1580485699.453,41312
1580485709.453,41313
1580485719.451,41313
1580485729.452,41313
1580485739.452,41313
1580485749.451,41313
1580485759.451,41313
1580485769.451,41313
1580485779.451,41313
1580485789.451,41313
1580485799.451,41313
1580485809.451,41313
1580485819.453,41313
1580485829.452,41313
1580485839.454,41314
1580485849.452,41314
1580485859.452,41314
1580485869.452,41314
1580485879.451,41314
1580485889.451,41314
1580485899.453,41314
1580485909.453,41314
1580485919.454,41314
1580485929.451,41314
1580485939.452,41314
1580485949.452,41314
1580485959.452,41314
1580485969.453,41314
1580485979.452,41314
1580485989.451,41314
1580485999.451,41314
1580486009.454,41314
1580486019.453,41317
1580486029.451,41317
1580486039.451,41317
1580486049.451,41317
1580486059.452,41317
1580486069.451,41317
1580486079.451,41317
1580486089.451,41317
1580486099.454,41317
1580486109.452,41317
1580486119.451,41317
1580486129.452,41317
1580486139.452,41317
1580486149.451,41317
1580486159.453,41317
1580486169.451,41317
1580486179.451,41317
1580486189.451,41317
1580486199.451,41317
1580486209.452,41317
1580486219.451,41317
1580486229.451,41317
1580486239.452,41317
1580486249.452,41317
1580486259.452,41317
1580486269.451,41317
1580486279.451,41317
1580486289.451,41317
1580486299.452,41317
1580486309.453,41317
1580486319.452,41317
1580486329.451,41317
1580486339.452,41317
1580486349.451,41317
1580486359.456,41317
1580486369.452,41317
1580486379.453,41317
1580486389.452,41317
1580486399.451,41317
1580486409.452,41317
1580486419.452,41317
1580486429.452,41317
1580486439.452,41317
1580486449.451,41317
1580486459.453,41317
1580486469.451,41318
1580486479.451,41318
1580486489.451,41318
1580486499.452,41318
1580486509.452,41318
1580486519.452,41318
1580486529.451,41318
1580486539.452,41318
1580486549.451,41318
1580486559.452,41319
1580486569.452,41319
1580486579.451,41319
1580486589.451,41319
1580486599.451,41319
1580486609.451,41321
1580486619.452,41321
1580486629.451,41321
1580486639.452,41321
1580486649.454,41321
1580486659.451,41321
1580486669.454,41321
1580486679.452,41321
1580486689.453,41321
1580486699.451,41321
1580486709.451,41321
1580486719.452,41321
1580486729.451,41321
1580486739.451,41322
