epoch,value
1580472801.116,20015
1580472811.100,20015
1580472821.098,20015
1580472831.099,20015
1580472841.099,20015
1580472851.100,20015
1580472861.098,20015
1580472871.098,20015
1580472881.098,20015
1580472891.099,20015
1580472901.098,20015
1580472911.098,20015
1580472921.098,20015
1580472931.098,20015
1580472941.099,20015
1580472951.100,20015
1580472961.099,20015
1580472971.098,20015
1580472981.102,20015
1580472991.098,20015
1580473001.098,20015
1580473011.100,20015
1580473021.098,20015
1580473031.098,20015
1580473041.098,20015
1580473051.098,20015
1580473061.098,20015
1580473071.098,20015
1580473081.098,20015
1580473091.098,20015
1580473101.098,20015
1580473111.098,20015
1580473121.099,20015
1580473131.099,20015
1580473141.100,20015
1580473151.098,20015
1580473161.101,20015
1580473171.098,20015
1580473181.101,20015
1580473191.098,20015
1580473201.098,20015
1580473211.098,20015
1580473221.098,20015
1580473231.099,20015
1580473241.098,20015
1580473251.098,20015
1580473261.099,20015
1580473271.098,20015
1580473281.098,20015
1580473291.098,20015
1580473301.098,20015
1580473311.100,20015
1580473321.099,20015
1580473331.098,20015
1580473341.098,20015
1580473351.098,20015
1580473361.098,20015
1580473371.099,20015
1580473381.098,20015
1580473391.099,20015
1580473401.098,20015
1580473411.098,20015
1580473421.098,20015
1580473431.099,20016
1580473441.098,20016
1580473451.098,20016
1580473461.099,20016
1580473471.099,20016
1580473481.099,20016
1580473491.098,20016
1580473501.098,20016
1580473511.098,20016
1580473521.098,20016
1580473531.098,20016
1580473541.099,20016
1580473551.099,20016
1580473561.098,20016
1580473571.099,20016
1580473581.098,20016
1580473591.098,20016
1580473601.098,20016
1580473611.098,20016
1580473621.098,20016
1580473631.098,20016
1580473641.098,20016
1580473651.098,20016
1580473661.099,20016
1580473671.098,20016
1580473681.098,20016
1580473691.098,20016
1580473701.098,20017
1580473711.099,20017
1580473721.098,20017
1580473731.098,20017
1580473741.098,20017
1580473751.098,20017
1580473761.101,20017
1580473771.098,20018
1580473781.099,20018
1580473791.098,20018
1580473801.101,20018
1580473811.098,20018
1580473821.098,20018
1580473831.099,20018
1580473841.099,20018
1580473851.098,20018
1580473861.099,20018
1580473871.098,20018
1580473881.098,20018
1580473891.100,20018
1580473901.099,20018
1580473911.098,20018
1580473921.098,20018
1580473931.099,20018
1580473941.098,20018
1580473951.098,20018
1580473961.100,20018
1580473971.098,20018
1580473981.098,20018
1580473991.098,20018
1580474001.100,20018
1580474011.098,20018
1580474021.098,20018
1580474031.098,20018
1580474041.099,20020
1580474051.098,20021
1580474061.098,20021
1580474071.098,20021
1580474081.098,20021
1580474091.099,20021
1580474101.098,20022
1580474111.098,20022
1580474121.098,20022
1580474131.098,20022
1580474141.098,20022
1580474151.098,20022
1580474161.098,20022
1580474171.101,20022
1580474181.098,20022
1580474191.098,20022
1580474201.098,20022
1580474211.098,20022
1580474221.098,20022
1580474231.100,20022
1580474241.098,20022
1580474251.098,20022
1580474261.098,20022
1580474271.098,20022
1580474281.098,20022
1580474291.102,20022
1580474301.098,20022
1580474311.099,20022
1580474321.098,20022
1580474331.098,20022
1580474341.099,20022
1580474351.098,20022
1580474361.098,20022
