epoch,value
1579803231.081,0
1579803241.081,0
1579803251.081,0
1579803261.082,0
1579803271.081,0
1579803281.081,0
1579803291.081,0
1579803301.081,0
1579803311.081,1
1579803321.081,1
1579803331.081,1
1579803341.081,1
1579803351.081,1
1579803361.081,1
1579803371.081,1
1579803381.081,1
1579803391.081,1
1579803401.081,1
1579803411.081,1
1579803431.081,1
1579803441.081,1
1579803451.081,1
1579803461.081,1
1579803471.081,1
1579803481.081,1
1579803491.081,1
1579803501.081,1
1579803511.081,2
1579803521.081,2
1579803531.081,2
1579803541.081,2
1579803551.081,2
1579803561.081,2
1579803571.081,2
1579803581.081,2
1579803591.081,2
1579803601.081,2
1579803611.081,2
1579803621.081,2
1579803631.082,2
1579803641.081,2
1579803651.081,2
1579803661.081,2
1579803671.081,2
1579803681.087,2
1579803691.081,2
1579803701.081,2
1579803711.081,2
1579803721.082,2
1579803731.081,2
1579803741.081,2
1579803751.081,2
1579803761.081,2
1579803771.081,2
1579803781.081,2
1579803791.081,2
1579803801.081,2
1579803811.081,2
1579803821.081,2
1579803831.081,2
1579803841.081,2
1579803851.081,2
1579803861.081,2
1579803871.081,2
1579803881.081,2
1579803891.081,2
1579803901.081,2
1579803911.081,2
1579803921.081,2
1579803931.081,2
1579803941.081,2
1579803951.081,2
1579803961.081,2
1579803971.081,2
1579803981.081,2
1579803991.081,2
1579804001.081,2
1579804011.081,2
1579804021.081,2
1579804031.081,2
1579804041.081,2
1579804051.081,2
1579804061.081,2
1579804071.081,2
1579804081.081,2
1579804091.081,2
1579804101.081,2
1579804111.081,2
1579804121.081,2
1579804131.081,2
1579804141.081,2
1579804151.081,2
1579804161.081,2
1579804171.081,2
1579804181.081,2
1579804191.082,2
1579804201.081,2
1579804211.081,2
1579804221.081,2
1579804231.081,2
1579804241.081,2
1579804251.081,2
1579804261.081,2
1579804271.081,2
1579804281.081,2
1579804291.081,2
1579804301.081,2
1579804311.081,2
1579804321.081,2
1579804331.081,2
1579804341.081,2
1579804361.081,2
1579804371.081,2
1579804381.081,2
1579804391.081,2
1579804401.081,2
1579804411.081,2
1579804421.081,2
1579804431.086,2
1579804441.081,2
1579804451.081,2
1579804461.081,2
1579804471.081,2
1579804481.081,2
1579804491.081,2
1579804501.081,2
1579804511.081,3
1579804521.081,3
1579804531.081,3
1579804541.081,3
1579804551.081,3
1579804561.081,3
1579804571.081,3
1579804581.081,3
1579804591.081,3
1579804601.081,3
1579804611.081,3
1579804621.081,3
1579804631.081,3
1579804641.081,3
1579804651.081,3
1579804661.081,3
1579804671.081,3
1579804681.081,3
1579804691.081,3
1579804701.081,3
1579804711.081,3
1579804721.081,3
1579804731.082,3
1579804741.081,3
1579804751.081,3
1579804761.081,3
