epoch,value
1579801424.378,13187
1579801434.360,13187
1579801444.359,13187
1579801454.358,13187
1579801464.358,13187
1579801474.358,13187
1579801484.358,13187
1579801494.360,13187
1579801504.358,13187
1579801514.359,13187
1579801524.358,13187
1579801534.358,13187
1579801544.358,13187
1579801554.360,13187
1579801564.358,13187
1579801574.359,13187
1579801584.359,13187
1579801594.359,13187
1579801604.359,13187
1579801614.358,13187
1579801624.358,13187
1579801634.359,13188
1579801644.358,13188
1579801654.358,13188
1579801664.358,13188
1579801674.360,13188
1579801684.358,13188
1579801694.359,13188
1579801704.358,13188
1579801714.358,13188
1579801724.359,13188
1579801734.358,13188
1579801744.358,13188
1579801754.360,13188
1579801764.358,13188
1579801774.358,13188
1579801784.359,13188
1579801794.358,13188
1579801804.358,13188
1579801814.359,13188
1579801824.358,13188
1579801834.358,13188
1579801844.358,13188
1579801854.361,13188
1579801864.358,13188
1579801874.358,13188
1579801884.358,13188
1579801894.362,13188
1579801904.359,13188
1579801914.358,13188
1579801924.358,13188
1579801934.358,13188
1579801944.358,13188
1579801954.359,13189
1579801964.358,13189
1579801974.359,13189
1579801984.359,13189
1579801994.358,13189
1579802004.358,13189
1579802014.362,13189
1579802024.359,13189
1579802034.358,13189
1579802044.359,13190
1579802054.358,13190
1579802064.360,13190
1579802074.360,13190
1579802084.359,13190
1579802094.358,13190
1579802104.358,13190
1579802114.358,13190
1579802124.358,13190
1579802134.358,13190
1579802144.358,13190
1579802154.358,13190
1579802164.359,13190
1579802174.358,13190
1579802184.358,13190
1579802194.358,13190
1579802204.358,13190
1579802214.358,13190
1579802224.358,13190
1579802234.358,13190
1579802244.359,13190
1579802254.358,13190
1579802264.358,13190
1579802274.358,13190
1579802284.362,13190
1579802294.359,13190
1579802304.358,13190
1579802314.358,13190
1579802324.358,13191
1579802334.359,13191
1579802344.360,13193
1579802354.358,13193
1579802364.358,13193
1579802374.359,13193
1579802384.359,13193
1579802394.358,13193
1579802404.358,13193
1579802414.358,13193
1579802424.360,13193
1579802434.358,13193
1579802444.359,13193
1579802454.358,13193
1579802464.358,13193
1579802474.359,13193
1579802484.358,13193
1579802494.358,13193
1579802504.358,13193
1579802514.358,13193
1579802524.358,13193
1579802534.358,13193
1579802544.358,13193
1579802554.358,13193
1579802564.358,13193
1579802574.358,13193
1579802584.359,13194
1579802594.359,13194
1579802604.359,13194
1579802614.359,13194
1579802624.358,13194
1579802634.358,13194
1579802644.358,13194
1579802654.358,13194
1579802664.358,13194
1579802674.358,13194
1579802684.358,13194
1579802694.359,13194
1579802704.359,13194
1579802714.358,13194
1579802724.358,13194
1579802734.358,13194
1579802744.358,13194
1579802754.358,13194
1579802764.359,13194
1579802774.358,13194
1579802784.358,13194
1579802794.358,13194
1579802804.358,13194
1579802814.359,13194
1579802824.359,13194
1579802834.358,13194
1579802844.358,13194
1579802854.361,13194
1579802864.358,13194
1579802874.358,13194
1579802884.358,13194
1579802894.358,13194
1579802904.360,13194
1579802914.358,13194
1579802924.359,13194
1579802934.359,13194
1579802944.358,13194
1579802954.358,13194
1579802964.358,13194
1579802974.359,13194
1579802984.359,13194
