epoch,value
1580594935.023,418613
1580594945.007,418613
1580594955.007,418613
1580594965.005,418613
1580594975.004,418613
1580594985.004,418613
1580594995.004,418613
1580595005.004,418614
1580595015.004,418614
1580595025.004,418614
1580595035.004,418615
1580595045.006,418616
1580595055.004,418616
1580595065.004,418616
1580595075.004,418616
1580595085.004,418616
1580595095.004,418617
1580595105.006,418617
1580595115.005,418617
1580595125.004,418617
1580595135.004,418617
1580595145.005,418617
1580595155.004,418617
1580595165.004,418617
1580595175.004,418618
1580595185.004,418618
1580595195.004,418618
1580595205.004,418619
1580595215.006,418619
1580595225.004,418620
1580595235.004,418620
1580595245.004,418620
1580595255.004,418621
1580595265.004,418621
1580595275.004,418621
1580595285.004,418621
1580595295.007,418622
1580595305.005,418622
1580595315.005,418622
1580595325.004,418622
1580595335.006,418622
1580595345.004,418624
1580595355.004,418624
1580595365.004,418625
1580595375.004,418626
1580595385.004,418627
1580595395.004,418628
1580595405.004,418628
1580595415.004,418628
1580595425.004,418628
1580595435.004,418629
1580595445.004,418630
1580595455.007,418630
1580595465.006,418632
1580595475.004,418632
1580595485.004,418634
1580595495.004,418636
1580595505.004,418637
1580595515.004,418638
1580595525.004,418640
1580595535.004,418640
1580595545.004,418641
1580595555.004,418641
1580595565.004,418642
1580595575.006,418642
1580595585.004,418643
1580595595.004,418644
1580595605.004,418644
1580595615.004,418645
1580595625.004,418646
1580595635.005,418646
1580595645.006,418646
1580595655.004,418647
1580595665.004,418648
1580595675.004,418648
1580595685.004,418648
1580595695.004,418648
1580595705.004,418650
1580595715.004,418650
1580595725.004,418651
1580595735.004,418651
1580595745.004,418651
1580595755.004,418653
1580595765.004,418654
1580595775.004,418654
1580595785.004,418655
1580595795.004,418655
1580595805.004,418655
1580595815.004,418655
1580595825.004,418656
1580595835.004,418657
1580595845.006,418658
1580595855.004,418658
1580595865.004,418658
1580595875.004,418658
1580595885.004,418658
1580595895.004,418660
1580595905.004,418660
1580595915.004,418661
1580595925.006,418661
1580595935.004,418661
1580595945.004,418661
1580595955.004,418663
1580595965.004,418664
1580595975.006,418664
1580595985.004,418664
1580595995.004,418664
1580596005.004,418666
1580596015.007,418666
1580596025.006,418666
1580596035.004,418666
1580596045.004,418668
1580596055.004,418668
1580596065.004,418669
1580596075.004,418669
1580596085.004,418670
1580596095.004,418670
1580596105.004,418671
1580596115.004,418671
1580596125.004,418671
1580596135.004,418672
1580596145.004,418672
1580596155.004,418672
1580596165.005,418674
1580596175.006,418674
1580596185.005,418676
1580596195.006,418676
1580596205.007,418677
1580596215.004,418679
1580596225.004,418680
1580596235.004,418683
1580596245.004,418684
1580596255.004,418686
1580596265.005,418687
1580596275.004,418687
1580596285.006,418688
1580596295.004,418688
1580596305.004,418689
1580596315.004,418689
1580596325.004,418690
1580596335.005,418690
1580596345.004,418690
1580596355.006,418690
1580596365.004,418691
1580596375.004,418692
1580596385.004,418692
1580596395.004,418692
1580596405.005,418692
1580596415.004,418693
1580596425.005,418695
1580596435.004,418695
1580596445.005,418696
1580596455.004,418696
1580596465.004,418696
1580596475.004,418696
1580596485.004,418696
1580596495.004,418698
1580596505.004,418698
1580596515.004,418700
1580596525.004,418700
1580596535.007,418700
1580596545.004,418700
1580596555.004,418700
1580596565.004,418701
1580596575.004,418701
1580596585.005,418702
1580596595.004,418702
1580596605.004,418704
1580596615.009,418704
1580596625.004,418705
1580596635.004,418705
1580596645.007,418707
1580596655.004,418707
1580596665.004,418707
1580596675.004,418707
1580596685.004,418708
1580596695.004,418708
1580596705.004,418708
1580596715.004,418709
1580596725.004,418709
1580596735.004,418709
1580596745.004,418710
1580596755.004,418710
1580596765.006,418710
1580596775.004,418710
1580596785.004,418710
1580596795.004,418711
1580596805.004,418713
1580596815.005,418714
1580596825.004,418714
1580596835.005,418714
1580596845.004,418714
1580596855.005,418715
1580596865.005,418716
1580596875.004,418716
1580596885.005,418716
1580596895.004,418717
1580596905.005,418718
1580596915.004,418720
1580596925.003,418720
1580596935.004,418721
1580596945.004,418721
1580596955.004,418721
1580596965.004,418721
1580596975.004,418723
1580596985.004,418724
1580596995.004,418726
1580597005.004,418726
1580597015.004,418726
1580597025.004,418726
1580597035.004,418726
1580597045.004,418728
1580597055.005,418729
1580597065.004,418729
1580597075.004,418730
1580597085.004,418730
1580597095.004,418730
1580597105.006,418731
1580597115.004,418731
1580597125.004,418732
1580597135.005,418732
1580597145.006,418732
1580597155.004,418732
1580597165.004,418732
1580597175.004,418733
1580597185.004,418734
1580597195.004,418736
1580597205.004,418737
1580597215.004,418738
1580597225.004,418739
1580597235.004,418739
1580597245.004,418739
1580597255.004,418740
1580597265.004,418740
1580597275.004,418740
1580597285.004,418740
1580597295.004,418741
1580597305.007,418741
1580597315.006,418741
1580597325.006,418741
1580597335.004,418742
1580597345.004,418742
1580597355.004,418742
1580597365.004,418742
1580597375.004,418742
1580597385.004,418742
1580597395.004,418742
1580597405.004,418743
1580597415.004,418743
1580597425.010,418744
1580597435.004,418745
1580597445.004,418745
1580597455.004,418746
1580597465.004,418746
1580597475.004,418746
1580597485.005,418748
1580597495.005,418750
1580597505.004,418750
1580597515.004,418750
1580597525.004,418750
1580597535.004,418751
1580597545.004,418752
1580597555.004,418752
1580597565.006,418754
1580597575.005,418754
1580597585.004,418754
1580597595.004,418755
1580597605.004,418756
1580597615.004,418756
1580597625.004,418757
1580597635.004,418757
1580597645.004,418758
1580597655.004,418758
1580597665.004,418759
1580597675.004,418759
1580597685.004,418759
1580597695.004,418759
1580597705.004,418760
1580597715.004,418761
1580597725.004,418762
1580597735.004,418762
1580597745.004,418763
1580597755.004,418764
1580597765.006,418765
1580597775.004,418766
1580597785.004,418768
1580597795.004,418768
1580597805.004,418768
1580597815.005,418768
1580597825.005,418769
1580597835.004,418770
1580597845.005,418772
1580597855.004,418772
1580597865.004,418774
1580597875.004,418777
1580597885.004,418777
1580597895.004,418777
1580597905.004,418778
1580597915.004,418779
1580597925.004,418780
1580597935.006,418780
1580597945.004,418781
1580597955.006,418782
1580597965.005,418784
1580597975.005,418784
1580597985.006,418785
1580597995.004,418785
