epoch,value
1580598005.006,418788
1580598015.008,418788
1580598025.006,418788
1580598035.004,418788
1580598045.005,418789
1580598055.005,418790
1580598065.004,418790
1580598075.004,418790
1580598085.004,418792
1580598095.004,418792
1580598105.004,418792
1580598115.004,418793
1580598125.004,418794
1580598135.006,418795
1580598145.004,418796
1580598155.004,418797
1580598165.004,418799
1580598175.004,418799
1580598185.004,418799
1580598195.004,418800
1580598205.004,418800
1580598215.004,418800
1580598225.005,418800
1580598235.004,418800
1580598245.004,418802
1580598255.007,418802
1580598265.006,418803
1580598275.004,418803
1580598285.004,418804
1580598295.006,418804
1580598305.008,418804
1580598315.004,418806
1580598325.004,418806
1580598335.004,418806
1580598345.004,418807
1580598355.004,418807
1580598365.004,418808
1580598375.003,418808
1580598385.004,418808
1580598395.004,418808
1580598405.004,418810
1580598415.005,418811
1580598425.004,418814
1580598435.004,418814
1580598445.005,418814
1580598455.004,418814
1580598465.003,418815
1580598475.004,418816
1580598485.004,418816
1580598495.004,418816
1580598505.004,418816
1580598515.004,418816
1580598525.004,418818
1580598535.004,418818
1580598545.004,418818
1580598555.004,418818
1580598565.004,418819
1580598575.004,418819
1580598585.004,418819
1580598595.004,418820
1580598605.004,418820
1580598615.004,418820
1580598625.005,418821
1580598635.004,418822
1580598645.004,418822
1580598655.004,418822
1580598665.004,418823
1580598675.004,418823
1580598685.006,418824
1580598695.004,418826
1580598705.004,418826
1580598715.005,418827
1580598725.004,418827
1580598735.004,418828
1580598745.004,418828
1580598755.004,418830
1580598765.006,418830
1580598775.004,418832
1580598785.005,418833
1580598795.005,418834
1580598805.004,418836
1580598815.004,418836
1580598825.004,418836
1580598835.004,418836
1580598845.004,418836
1580598855.004,418836
1580598865.004,418838
1580598875.004,418840
1580598885.004,418841
1580598895.004,418843
1580598905.004,418844
1580598915.004,418845
1580598925.004,418846
1580598935.004,418847
1580598945.004,418848
1580598955.004,418848
1580598965.006,418849
1580598975.004,418849
1580598985.004,418849
1580598995.004,418849
1580599005.004,418849
1580599015.006,418850
1580599025.004,418852
1580599035.004,418854
1580599045.004,418855
1580599055.004,418855
1580599065.004,418855
1580599075.004,418855
1580599085.004,418856
1580599095.007,418856
1580599105.004,418856
1580599115.004,418857
1580599125.006,418859
1580599135.004,418862
1580599145.005,418862
1580599155.004,418862
1580599165.004,418862
1580599175.004,418864
1580599185.003,418865
1580599195.004,418865
1580599205.004,418866
1580599215.004,418866
1580599225.005,418866
1580599235.006,418867
1580599245.004,418867
1580599255.005,418867
1580599265.004,418867
1580599275.004,418867
1580599285.004,418867
1580599295.004,418869
1580599305.004,418869
1580599315.005,418869
1580599325.005,418869
1580599335.004,418870
1580599345.007,418870
1580599355.004,418870
1580599365.004,418870
1580599375.004,418871
1580599385.004,418872
1580599395.004,418872
1580599405.005,418873
1580599415.004,418874
1580599425.004,418874
1580599435.004,418875
1580599445.005,418876
1580599455.004,418877
1580599465.004,418878
1580599475.004,418879
1580599485.004,418881
1580599495.005,418882
1580599505.004,418882
1580599515.004,418883
1580599525.006,418884
1580599535.004,418885
1580599545.005,418886
1580599555.004,418886
1580599565.004,418887
1580599575.005,418887
1580599585.004,418888
1580599595.004,418889
1580599605.004,418889
1580599615.004,418891
1580599625.004,418892
1580599635.004,418892
1580599645.004,418892
1580599655.007,418894
1580599665.004,418895
1580599675.005,418895
1580599685.005,418896
1580599695.004,418896
1580599705.004,418896
1580599715.005,418897
1580599725.006,418898
1580599735.004,418898
1580599745.004,418900
1580599755.004,418900
1580599765.004,418900
1580599775.004,418900
1580599785.006,418902
1580599795.004,418904
1580599805.004,418904
1580599815.004,418904
1580599825.004,418904
1580599835.004,418904
1580599845.005,418905
1580599855.004,418905
1580599865.005,418906
1580599875.004,418906
1580599885.004,418906
1580599895.004,418906
1580599905.004,418906
1580599915.004,418908
1580599925.004,418908
1580599935.004,418908
1580599945.006,418910
1580599955.004,418912
1580599965.005,418912
1580599975.004,418913
1580599985.004,418913
1580599995.004,418913
1580600005.004,418913
1580600015.004,418914
1580600025.004,418914
1580600035.004,418914
1580600045.004,418914
1580600055.004,418914
1580600065.005,418914
1580600075.004,418915
1580600085.004,418915
1580600095.004,418916
1580600105.004,418917
1580600115.004,418917
1580600125.005,418918
1580600135.004,418918
1580600145.004,418918
1580600155.004,418918
1580600165.005,418918
1580600175.004,418918
1580600185.004,418918
1580600195.004,418920
1580600205.004,418920
1580600215.005,418922
1580600225.007,418924
1580600235.004,418925
1580600245.004,418927
1580600255.008,418927
1580600265.004,418927
1580600275.004,418928
1580600285.004,418929
1580600295.004,418929
1580600305.004,418930
1580600315.004,418931
1580600325.004,418931
1580600335.004,418932
1580600345.004,418934
1580600355.004,418935
1580600365.004,418935
1580600375.004,418936
1580600385.004,418936
1580600395.004,418937
1580600405.008,418937
1580600415.004,418938
1580600425.004,418938
1580600435.004,418939
1580600445.004,418939
1580600455.004,418939
1580600465.004,418940
1580600475.004,418940
1580600485.004,418940
1580600495.004,418940
1580600505.005,418940
1580600515.006,418940
1580600525.004,418941
1580600535.004,418942
1580600545.004,418942
1580600555.004,418944
1580600565.004,418944
1580600575.004,418944
1580600585.005,418945
1580600595.004,418945
1580600605.005,418945
1580600615.004,418946
1580600625.004,418946
1580600635.004,418946
1580600645.004,418947
1580600655.004,418947
1580600665.004,418948
1580600675.005,418948
1580600685.005,418948
1580600695.004,418948
1580600705.004,418948
1580600715.003,418949
1580600725.004,418950
1580600735.004,418950
1580600745.004,418950
1580600755.004,418951
1580600765.004,418952
1580600775.004,418952
1580600785.004,418952
1580600795.004,418952
1580600805.004,418952
1580600815.004,418953
1580600825.004,418955
1580600835.004,418955
1580600845.004,418956
1580600855.004,418956
1580600865.004,418956
1580600875.004,418956
1580600885.004,418956
1580600895.004,418958
1580600905.004,418958
1580600915.004,418958
1580600925.004,418959
1580600935.004,418959
1580600945.004,418959
1580600955.004,418960
1580600965.004,418960
1580600975.004,418961
1580600985.004,418961
1580600995.004,418961
1580601005.004,418963
1580601015.004,418963
1580601025.004,418963
1580601035.004,418963
1580601045.004,418964
1580601055.004,418964
1580601065.007,418964
1580601075.004,418964
1580601085.004,418966
1580601095.004,418966
1580601105.004,418966
1580601115.007,418968
1580601125.006,418968
1580601135.004,418970
1580601145.004,418970
1580601155.004,418971
1580601165.006,418973
1580601175.006,418973
1580601185.004,418974
1580601195.004,418974
1580601205.004,418975
1580601215.005,418975
1580601225.004,418975
1580601235.005,418976
1580601245.004,418976
1580601255.004,418976
1580601265.007,418976
1580601275.004,418977
1580601285.004,418977
1580601295.004,418977
1580601305.004,418978
1580601315.004,418978
1580601325.004,418980
1580601335.004,418980
1580601345.004,418980
1580601355.004,418982
1580601365.004,418983
1580601375.005,418984
1580601385.004,418984
1580601395.004,418984
1580601405.004,418984
1580601415.004,418985
1580601425.004,418985
1580601435.005,418986
1580601445.004,418988
1580601455.004,418989
1580601465.005,418989
1580601475.007,418989
1580601485.004,418990
1580601495.004,418991
1580601505.004,418992
1580601515.004,418992
1580601525.004,418992
1580601535.004,418992
1580601545.004,418993
1580601555.004,418994
1580601565.004,418994
1580601575.004,418994
1580601585.004,418994
1580601595.004,418995
1580601605.004,418995
1580601615.004,418996
1580601625.004,418996
1580601635.004,418998
1580601645.004,418999
1580601655.004,419001
1580601665.004,419001
1580601675.004,419002
1580601685.004,419002
1580601695.004,419003
1580601705.004,419003
1580601715.005,419004
1580601725.006,419005
1580601735.004,419005
1580601745.004,419005
1580601755.004,419006
1580601765.004,419008
1580601775.004,419008
1580601785.004,419009
1580601795.004,419010
1580601805.004,419010
1580601815.004,419011
1580601825.004,419012
1580601835.004,419014
1580601845.004,419014
1580601855.004,419014
1580601865.004,419016
1580601875.004,419016
1580601885.004,419018
1580601895.004,419019
1580601905.004,419020
1580601915.004,419020
1580601925.006,419022
1580601935.004,419022
1580601945.004,419022
1580601955.004,419022
1580601965.004,419022
1580601975.004,419023
1580601985.004,419024
1580601995.004,419024
1580602005.004,419025
1580602015.005,419027
1580602025.003,419027
1580602035.004,419027
1580602045.004,419029
1580602055.004,419030
1580602065.004,419030
1580602075.004,419030
1580602085.004,419030
1580602095.004,419031
1580602105.004,419032
1580602115.004,419033
1580602125.004,419035
1580602135.004,419035
1580602145.004,419036
1580602155.004,419036
1580602165.004,419036
1580602175.004,419036
1580602185.004,419036
1580602195.004,419036
1580602205.004,419036
1580602215.004,419038
1580602225.004,419039
1580602235.004,419039
1580602245.004,419040
1580602255.004,419040
1580602265.004,419040
1580602275.004,419040
1580602285.004,419040
1580602295.004,419041
1580602305.003,419041
1580602315.006,419041
1580602325.004,419042
1580602335.004,419043
1580602345.004,419044
1580602355.004,419046
1580602365.004,419047
1580602375.004,419047
1580602385.004,419048
1580602395.004,419048
1580602405.003,419048
1580602415.004,419049
1580602425.004,419050
1580602435.004,419051
1580602445.004,419052
1580602455.004,419052
1580602465.004,419055
1580602475.005,419055
1580602485.004,419056
1580602495.004,419057
1580602505.004,419058
1580602515.004,419058
1580602525.004,419058
1580602535.004,419058
1580602545.004,419058
1580602555.004,419059
1580602565.004,419059
1580602575.004,419059
1580602585.004,419060
1580602595.004,419060
1580602605.004,419060
1580602615.004,419060
1580602625.004,419061
1580602635.004,419061
1580602645.004,419062
1580602655.004,419062
1580602665.004,419063
1580602675.004,419064
1580602685.004,419065
1580602695.004,419065
1580602705.004,419066
1580602715.004,419066
1580602725.004,419066
1580602735.004,419067
1580602745.004,419067
1580602755.004,419068
1580602765.004,419068
1580602775.004,419069
1580602785.004,419069
1580602795.004,419070
1580602805.004,419070
1580602815.004,419070
1580602825.004,419070
1580602835.004,419070
1580602845.004,419070
1580602855.004,419070
1580602865.004,419070
1580602875.004,419072
1580602885.004,419072
1580602895.004,419072
1580602905.004,419074
1580602915.004,419074
1580602925.004,419074
1580602935.004,419074
1580602945.004,419074
1580602955.004,419074
1580602965.004,419075
1580602975.004,419076
1580602985.004,419076
1580602995.004,419078
1580603005.004,419078
1580603015.004,419079
1580603025.004,419079
1580603035.004,419080
1580603045.004,419081
1580603055.004,419082
1580603065.004,419082
1580603075.004,419082
1580603085.004,419082
1580603095.004,419082
