epoch,value
1579797874.231,13172
1579797884.212,13172
1579797894.213,13172
1579797904.213,13172
1579797914.213,13172
1579797924.212,13172
1579797934.212,13172
1579797944.215,13172
1579797954.212,13172
1579797964.212,13173
1579797974.212,13173
1579797984.212,13173
1579797994.212,13173
1579798004.212,13173
1579798014.212,13174
1579798024.212,13175
1579798034.212,13175
1579798044.213,13175
1579798054.212,13175
1579798064.213,13175
1579798074.212,13175
1579798084.212,13175
1579798094.213,13175
1579798104.212,13175
1579798114.212,13175
1579798124.212,13175
1579798134.212,13175
1579798144.212,13175
1579798154.212,13175
1579798164.212,13175
1579798174.212,13175
1579798184.214,13175
1579798194.212,13175
1579798204.212,13175
1579798214.213,13175
1579798224.212,13175
1579798234.212,13175
1579798244.212,13175
1579798254.213,13175
1579798264.212,13175
1579798274.212,13175
1579798284.212,13175
1579798294.212,13175
1579798304.213,13175
1579798314.213,13175
1579798324.212,13175
1579798334.212,13175
1579798344.212,13175
1579798354.212,13175
1579798364.212,13175
1579798374.212,13175
1579798384.212,13175
1579798394.212,13175
1579798404.212,13175
1579798414.214,13175
1579798424.212,13175
1579798434.212,13175
1579798444.213,13175
1579798454.214,13175
1579798464.212,13175
1579798474.213,13175
1579798484.212,13175
1579798494.212,13175
1579798504.212,13175
1579798514.212,13175
1579798524.212,13175
1579798534.211,13175
1579798544.213,13175
1579798554.212,13175
1579798564.212,13175
1579798574.212,13175
1579798584.213,13175
1579798594.214,13175
1579798604.212,13175
1579798614.214,13175
1579798624.212,13175
1579798634.212,13175
1579798644.212,13175
1579798654.212,13175
1579798664.212,13175
1579798674.213,13175
1579798684.212,13175
1579798694.212,13175
1579798704.212,13175
1579798714.213,13175
1579798724.213,13175
1579798734.212,13175
1579798744.212,13175
1579798754.214,13175
1579798764.212,13175
1579798774.212,13175
1579798784.212,13175
1579798794.213,13175
1579798804.212,13175
1579798814.212,13175
1579798824.212,13175
1579798834.212,13175
1579798844.213,13175
1579798854.212,13175
1579798864.212,13175
1579798874.213,13175
1579798884.212,13175
1579798894.212,13175
1579798904.213,13175
1579798914.212,13175
1579798924.212,13175
1579798934.212,13175
1579798944.213,13175
1579798954.212,13175
1579798964.212,13175
1579798974.212,13175
1579798984.212,13175
1579798994.212,13175
1579799004.212,13175
1579799014.212,13175
1579799024.213,13175
1579799034.212,13175
1579799044.212,13175
1579799054.212,13175
1579799064.212,13175
1579799074.212,13175
1579799084.212,13175
1579799094.212,13175
1579799104.212,13175
1579799114.213,13176
1579799124.215,13176
1579799134.215,13176
1579799144.212,13176
1579799154.212,13176
1579799164.213,13176
1579799174.212,13176
1579799184.212,13176
1579799194.212,13176
1579799204.212,13176
1579799214.212,13176
1579799224.212,13176
1579799234.212,13176
1579799244.213,13176
1579799254.212,13176
1579799264.212,13176
1579799274.212,13176
1579799284.212,13176
1579799294.213,13176
1579799304.212,13176
1579799314.212,13176
1579799324.212,13176
1579799334.212,13176
1579799344.215,13176
1579799354.212,13176
1579799364.212,13176
1579799374.212,13176
1579799384.212,13176
1579799394.213,13176
1579799404.212,13176
1579799414.212,13176
1579799424.213,13176
1579799434.212,13176
