epoch,value
1580242462.511,316299
1580242472.491,316299
1580242482.491,316299
1580242492.491,316299
1580242502.491,316300
1580242512.491,316300
1580242522.492,316314
1580242532.491,316358
1580242542.491,316372
1580242552.492,316395
1580242562.491,316436
1580242572.494,316485
1580242582.491,316527
1580242592.493,316580
1580242602.491,316620
1580242612.491,316669
1580242622.491,316714
1580242632.491,316748
1580242642.492,316794
1580242652.491,316839
1580242662.491,316883
1580242672.494,316922
1580242682.491,316964
1580242692.491,317000
1580242702.491,317036
1580242712.491,317072
1580242722.492,317103
1580242732.495,317140
1580242742.491,317185
1580242752.491,317230
1580242762.491,317280
1580242772.491,317322
1580242782.493,317360
1580242792.492,317402
1580242802.492,317444
1580242812.494,317485
1580242822.492,317540
1580242832.492,317582
1580242842.491,317628
1580242852.491,317662
1580242862.491,317700
1580242872.491,317752
1580242882.491,317800
1580242892.492,317839
1580242902.491,317884
1580242912.491,317918
1580242922.491,317956
1580242932.491,317976
1580242942.491,317976
1580242952.492,317976
1580242962.492,317977
1580242972.492,317979
1580242982.491,317980
1580242992.491,317980
1580243002.491,317982
1580243012.493,317984
1580243022.492,317986
1580243032.491,317986
1580243042.491,317987
1580243052.491,317989
1580243062.491,317990
1580243072.493,317990
1580243082.491,317991
1580243092.491,317992
1580243102.491,317993
1580243112.491,317993
1580243122.491,317993
1580243132.494,317993
1580243142.492,317994
1580243152.494,317994
1580243162.491,317994
1580243172.491,317994
1580243182.492,317995
1580243192.491,317995
1580243202.492,317996
1580243212.491,317996
1580243222.493,317996
1580243232.491,317996
1580243242.493,317997
1580243252.491,317997
1580243262.493,317998
1580243272.491,317998
1580243282.491,317999
1580243292.493,317999
1580243302.491,318000
1580243312.494,318000
1580243322.491,318000
1580243332.491,318000
1580243342.491,318001
1580243352.492,318001
1580243362.491,318001
1580243372.491,318001
1580243382.496,318001
1580243392.491,318001
1580243402.491,318001
1580243412.493,318002
1580243422.493,318004
1580243432.491,318005
1580243442.491,318005
1580243452.491,318005
1580243462.493,318005
1580243472.491,318006
1580243482.491,318006
1580243492.491,318006
1580243502.491,318006
1580243512.491,318006
1580243522.491,318006
1580243532.491,318007
1580243542.491,318007
1580243552.492,318008
1580243562.491,318008
1580243572.491,318008
1580243582.491,318008
1580243592.491,318010
1580243602.491,318011
1580243612.491,318011
1580243622.491,318012
1580243632.491,318012
1580243642.491,318014
1580243652.492,318014
1580243662.492,318015
1580243672.491,318016
1580243682.491,318018
1580243692.492,318018
1580243702.492,318019
1580243712.491,318020
1580243722.492,318020
1580243732.494,318021
1580243742.494,318021
1580243752.492,318021
1580243762.492,318021
1580243772.491,318022
1580243782.491,318024
1580243792.492,318024
1580243802.491,318026
1580243812.491,318027
1580243822.492,318029
1580243832.494,318030
1580243842.491,318031
1580243852.491,318031
1580243862.491,318031
1580243872.491,318031
1580243882.496,318032
1580243892.493,318032
1580243902.491,318034
1580243912.492,318035
1580243922.491,318037
1580243932.493,318038
1580243942.491,318039
1580243952.492,318040
1580243962.492,318040
1580243972.492,318040
1580243982.493,318040
1580243992.491,318041
1580244002.491,318042
1580244012.491,318043
1580244022.491,318043
1580244032.491,318043
1580244042.492,318044
1580244052.491,318045
1580244062.491,318046
1580244072.491,318046
1580244082.491,318047
1580244092.491,318047
1580244102.491,318048
1580244112.491,318050
1580244122.491,318050
1580244132.492,318050
1580244142.491,318053
1580244152.491,318053
1580244162.491,318053
1580244172.491,318054
1580244182.493,318055
1580244192.492,318055
1580244202.493,318055
1580244212.491,318055
1580244222.491,318056
1580244232.493,318057
1580244242.491,318058
1580244252.491,318059
1580244262.492,318060
1580244272.492,318060
1580244282.497,318060
1580244292.491,318060
1580244302.491,318061
1580244312.492,318063
1580244322.493,318063
1580244332.493,318065
1580244342.491,318065
1580244352.491,318066
1580244362.493,318068
1580244372.492,318068
1580244382.492,318068
1580244392.491,318068
1580244402.491,318070
1580244412.492,318070
1580244422.491,318070
1580244432.491,318070
1580244442.491,318071
1580244452.491,318071
1580244462.493,318072
1580244472.492,318072
1580244482.491,318072
1580244492.491,318073
1580244502.492,318074
1580244512.493,318077
1580244522.491,318078
1580244532.491,318079
1580244542.492,318081
1580244552.493,318083
1580244562.494,318083
1580244572.493,318085
1580244582.491,318085
1580244592.491,318085
1580244602.491,318085
1580244612.492,318086
1580244622.491,318086
1580244632.491,318086
1580244642.493,318086
1580244652.491,318086
1580244662.491,318086
1580244672.491,318088
1580244682.491,318088
1580244692.491,318088
1580244702.491,318088
1580244712.492,318088
1580244722.492,318088
1580244732.491,318088
1580244742.491,318089
1580244752.491,318089
1580244762.492,318089
1580244772.491,318089
1580244782.491,318089
1580244792.494,318090
1580244802.492,318092
1580244812.491,318092
1580244822.494,318092
1580244832.492,318092
1580244842.491,318092
1580244852.493,318093
1580244862.493,318094
1580244872.491,318094
1580244882.491,318094
1580244892.492,318095
1580244902.491,318096
1580244912.492,318096
1580244922.492,318096
1580244932.491,318097
1580244942.491,318098
1580244952.492,318099
1580244962.494,318099
1580244972.492,318099
1580244982.491,318099
1580244992.491,318099
1580245002.491,318100
1580245012.491,318100
1580245022.491,318100
1580245032.491,318101
1580245042.492,318101
1580245052.492,318101
1580245062.491,318102
1580245072.492,318104
1580245082.494,318104
1580245092.493,318104
1580245102.492,318106
1580245112.493,318107
1580245122.491,318107
1580245132.491,318110
1580245142.491,318110
1580245152.491,318110
1580245162.491,318111
1580245172.491,318111
1580245182.492,318112
1580245192.491,318112
1580245202.491,318112
1580245212.491,318112
1580245222.491,318113
