epoch,value
1579886017.955,0
1579886027.955,0
1579886037.955,0
1579886047.955,0
1579886057.955,0
1579886067.955,0
1579886077.955,0
1579886087.955,0
1579886097.955,0
1579886107.955,0
1579886117.955,0
1579886127.955,0
1579886137.955,0
1579886147.955,0
1579886157.955,0
1579886167.955,0
1579886177.955,0
1579886187.955,0
1579886197.955,0
1579886207.955,0
1579886217.955,0
1579886227.955,0
1579886237.955,0
1579886247.955,0
1579886257.955,0
1579886267.955,0
1579886277.955,0
1579886287.955,0
1579886297.955,0
1579886307.955,0
1579886317.955,0
1579886327.955,0
1579886337.955,0
1579886347.955,0
1579886357.955,0
1579886367.955,0
1579886377.955,0
1579886387.955,0
1579886397.955,0
1579886407.955,0
1579886417.955,0
1579886427.955,0
1579886437.955,0
1579886447.955,0
1579886457.955,0
1579886467.955,0
1579886477.955,0
1579886487.955,0
1579886497.955,0
1579886507.955,0
1579886517.955,0
1579886527.955,0
1579886537.955,0
1579886547.955,0
1579886557.955,0
1579886567.955,0
1579886577.955,0
1579886587.955,0
1579886597.955,0
1579886607.955,0
1579886617.955,0
1579886627.955,0
1579886637.955,0
1579886647.955,0
1579886657.955,0
1579886667.955,0
1579886677.955,0
1579886687.955,0
1579886697.955,0
1579886707.955,0
1579886717.955,0
1579886727.958,0
1579886737.955,0
1579886747.955,0
1579886757.955,0
1579886767.955,0
1579886777.955,0
1579886787.955,0
1579886797.955,0
1579886807.955,0
1579886817.955,0
1579886827.955,0
1579886837.955,0
1579886847.955,0
1579886857.955,0
1579886867.955,0
1579886877.955,0
1579886887.955,1
1579886897.955,1
1579886907.955,1
1579886917.955,1
1579886927.955,1
1579886937.955,1
1579886947.955,1
1579886957.955,1
1579886967.955,1
1579886977.955,1
1579886987.955,1
1579886997.955,1
1579887007.955,1
1579887017.955,1
1579887027.955,1
1579887037.961,1
1579887047.955,1
1579887057.955,1
1579887067.955,1
1579887077.955,1
1579887087.955,1
1579887097.955,1
1579887107.955,1
1579887117.955,1
1579887127.955,1
1579887137.955,1
1579887147.961,1
1579887157.955,1
1579887167.955,1
1579887177.955,1
1579887187.955,1
1579887197.955,1
1579887207.955,1
1579887217.955,1
1579887227.955,1
1579887237.955,1
1579887247.955,1
1579887257.955,1
1579887267.955,1
1579887277.955,1
1579887287.955,1
1579887297.955,1
1579887307.955,1
1579887317.955,1
1579887327.955,1
1579887337.955,1
1579887347.955,1
1579887357.955,1
1579887367.955,1
1579887377.955,1
1579887387.955,1
1579887397.955,1
1579887407.955,1
1579887417.955,1
1579887427.955,1
1579887437.955,1
1579887447.955,1
1579887457.955,1
1579887467.955,1
1579887477.955,1
1579887487.955,1
1579887497.955,1
1579887507.955,1
1579887517.955,1
1579887527.955,1
1579887537.955,1
1579887547.955,1
1579887557.955,1
1579887567.955,1
1579887577.955,1
1579887587.955,1
1579887597.955,1
1579887607.955,1
1579887617.955,1
1579887627.955,1
1579887637.955,1
1579887647.955,1
1579887657.955,1
1579887667.955,1
1579887677.955,1
1579887687.955,1
1579887697.955,1
1579887707.955,1
1579887717.955,1
1579887727.955,1
1579887737.955,1
1579887747.955,1
1579887757.955,1
1579887767.955,1
1579887777.955,1
1579887787.955,1
1579887797.955,1
1579887807.955,1
1579887817.955,1
1579887827.955,1
1579887837.955,1
1579887847.955,1
1579887857.955,1
1579887867.955,1
1579887877.955,1
1579887887.955,1
1579887897.955,1
1579887907.955,1
1579887917.955,1
1579887927.955,1
1579887937.955,1
1579887947.955,1
1579887957.955,1
1579887967.955,1
1579887977.955,1
1579887987.955,1
1579887997.955,1
1579888007.955,1
1579888017.955,1
1579888027.955,1
1579888037.955,1
1579888047.955,1
1579888057.955,1
1579888067.955,1
1579888077.955,1
1579888087.955,1
1579888097.955,1
1579888117.955,1
1579888127.955,1
1579888137.955,1
1579888147.955,1
1579888157.955,1
1579888167.955,1
1579888177.955,1
1579888187.955,1
1579888197.955,1
1579888207.955,1
1579888217.955,1
1579888227.955,1
1579888237.955,1
1579888247.958,1
1579888257.955,1
1579888267.955,1
1579888277.955,1
1579888287.955,1
1579888297.955,1
1579888307.955,1
1579888317.955,1
1579888327.955,1
1579888337.955,1
1579888347.955,1
1579888357.955,1
1579888367.955,1
1579888377.955,1
1579888387.955,2
1579888397.955,2
1579888407.955,2
1579888417.955,2
1579888427.955,2
1579888437.955,2
1579888447.955,2
1579888457.955,2
1579888467.955,2
1579888477.955,2
1579888487.955,2
1579888497.955,2
1579888507.955,2
1579888517.955,2
1579888527.955,2
1579888537.955,2
1579888547.955,2
1579888557.955,2
1579888567.955,2
1579888577.955,2
1579888587.955,2
1579888597.955,2
1579888607.955,2
1579888617.955,2
1579888627.955,2
1579888637.955,2
1579888647.955,2
1579888657.955,2
1579888667.955,2
1579888677.955,2
1579888687.955,2
1579888697.955,2
1579888707.955,2
1579888717.955,2
1579888727.955,2
1579888737.955,2
1579888747.955,2
