epoch,value
1580209399.724,0
1580209409.724,0
1580209419.724,0
1580209429.724,0
1580209439.724,0
1580209449.724,0
1580209459.724,0
1580209469.724,0
1580209479.724,0
1580209489.724,0
1580209499.724,0
1580209509.724,0
1580209519.724,0
1580209529.724,0
1580209539.724,0
1580209549.724,0
1580209559.724,0
1580209569.724,0
1580209579.724,0
1580209589.724,0
1580209599.724,0
1580209609.724,0
1580209619.724,0
1580209629.724,0
1580209639.724,0
1580209649.724,0
1580209659.724,0
1580209669.724,0
1580209679.724,0
1580209689.724,0
1580209699.724,0
1580209709.724,0
1580209719.724,0
1580209729.724,0
1580209739.724,0
1580209749.724,0
1580209759.724,1
1580209769.724,1
1580209779.724,1
1580209789.724,1
1580209799.724,1
1580209809.724,1
1580209819.724,1
1580209829.724,1
1580209839.724,1
1580209849.724,1
1580209859.724,1
1580209869.724,1
1580209879.724,1
1580209889.724,1
1580209899.724,1
1580209909.724,1
1580209919.724,1
1580209929.724,1
1580209939.724,1
1580209949.724,1
1580209959.724,1
1580209969.724,1
1580209979.724,1
1580209989.724,1
1580209999.724,1
1580210009.724,1
1580210019.724,1
1580210029.724,1
1580210039.724,1
1580210049.724,1
1580210059.724,1
1580210069.724,1
1580210079.724,1
1580210089.725,1
1580210099.724,1
1580210109.724,1
1580210119.724,1
1580210129.724,1
1580210139.724,1
1580210149.724,1
1580210159.724,1
1580210169.724,1
1580210179.724,1
1580210189.724,1
1580210199.724,1
1580210209.724,2
1580210219.724,2
1580210229.724,2
1580210239.724,2
1580210249.724,2
1580210259.724,2
1580210269.724,2
1580210279.724,2
1580210289.724,2
1580210299.724,2
1580210309.724,2
1580210319.724,2
1580210329.724,2
1580210339.724,2
1580210349.724,2
1580210359.724,2
1580210369.724,2
1580210379.724,2
1580210389.724,2
1580210399.724,2
1580210409.724,2
1580210419.724,2
1580210429.724,2
1580210439.726,2
1580210449.724,2
1580210459.724,2
1580210469.724,2
1580210479.724,2
1580210489.724,2
1580210499.724,2
1580210509.724,2
1580210519.724,2
1580210529.724,2
1580210539.724,2
1580210549.724,2
1580210559.724,2
1580210569.724,2
1580210579.724,2
1580210589.724,2
1580210599.724,2
1580210609.724,2
1580210619.724,2
1580210629.725,2
1580210639.724,2
1580210649.724,2
1580210659.724,2
1580210669.724,3
1580210679.724,3
1580210689.724,3
1580210699.724,3
1580210709.724,3
1580210719.724,3
1580210729.724,3
1580210739.724,3
1580210749.725,3
1580210759.724,3
1580210769.724,3
1580210779.724,3
1580210789.724,3
1580210799.724,3
1580210809.724,3
1580210819.724,3
1580210829.724,3
1580210839.724,3
1580210849.724,3
1580210859.724,3
1580210869.724,3
1580210879.724,3
1580210889.724,3
1580210899.724,3
1580210909.724,3
1580210919.724,3
1580210929.724,3
1580210939.724,3
1580210949.724,3
1580210959.724,3
1580210969.724,3
1580210979.726,4
1580210989.724,4
1580210999.724,4
1580211009.724,4
1580211019.724,4
1580211029.724,4
1580211039.724,4
1580211049.724,4
1580211059.724,4
1580211069.724,4
1580211079.724,4
1580211089.724,4
1580211099.724,4
1580211109.724,4
1580211119.724,4
1580211129.724,4
1580211139.724,4
1580211149.724,4
1580211159.724,4
1580211169.724,4
1580211179.724,4
1580211189.724,4
1580211199.724,4
1580211209.724,4
1580211219.724,4
1580211229.724,4
1580211239.724,4
1580211249.724,4
1580211259.724,4
1580211269.724,4
1580211279.724,4
1580211289.724,4
1580211299.724,4
1580211309.724,4
1580211319.724,4
1580211329.724,4
1580211339.724,4
1580211349.724,4
1580211359.724,4
1580211369.724,4
1580211379.724,4
1580211389.724,4
1580211399.724,4
1580211409.724,4
1580211419.724,4
1580211429.724,4
1580211439.724,4
1580211449.724,4
1580211459.724,4
1580211469.724,4
1580211479.724,4
1580211489.724,4
1580211499.724,4
1580211509.724,5
1580211519.724,5
1580211529.724,5
1580211539.724,5
1580211549.724,5
1580211559.724,5
1580211569.724,5
1580211579.729,5
1580211589.724,5
1580211599.724,5
1580211609.724,5
1580211619.724,5
1580211629.724,5
1580211639.724,5
1580211649.724,5
1580211659.724,5
1580211669.724,5
1580211679.724,5
1580211689.724,5
1580211699.724,5
1580211709.724,5
1580211719.724,5
1580211729.724,5
1580211739.724,5
1580211749.724,5
1580211759.724,5
1580211769.724,5
1580211779.724,5
1580211789.724,5
1580211799.724,5
1580211809.724,5
1580211819.724,5
1580211829.724,5
1580211839.724,5
1580211849.724,5
1580211859.724,5
1580211869.724,6
1580211879.724,6
1580211889.724,6
1580211899.724,6
1580211909.724,6
1580211919.724,6
1580211929.724,6
1580211939.724,6
1580211949.724,6
1580211959.724,6
1580211969.724,6
1580211979.724,6
1580211989.724,6
1580211999.725,6
1580212009.724,6
1580212019.724,6
1580212029.724,6
1580212039.724,6
1580212049.724,6
1580212059.724,6
1580212069.724,6
1580212079.724,6
1580212089.724,6
1580212099.724,6
1580212109.724,6
1580212119.724,6
1580212129.724,6
1580212139.724,6
1580212149.724,6
