epoch,value
1580485179.471,412278
1580485189.452,412278
1580485199.453,412278
1580485209.452,412279
1580485219.451,412279
1580485229.452,412279
1580485239.451,412285
1580485249.453,412301
1580485259.451,412302
1580485269.451,412313
1580485279.451,412316
1580485289.453,412334
1580485299.451,412341
1580485309.452,412348
1580485319.451,412361
1580485329.452,412365
1580485339.452,412373
1580485349.452,412378
1580485359.452,412394
1580485369.452,412400
1580485379.451,412404
1580485389.452,412405
1580485399.452,412417
1580485409.451,412424
1580485419.452,412430
1580485429.452,412440
1580485439.453,412441
1580485449.451,412455
1580485459.452,412459
1580485469.455,412474
1580485479.452,412480
1580485489.451,412487
1580485499.451,412499
1580485509.452,412501
1580485519.451,412517
1580485529.453,412525
1580485539.453,412525
1580485549.451,412526
1580485559.451,412527
1580485569.451,412529
1580485579.451,412529
1580485589.452,412529
1580485599.452,412530
1580485609.451,412530
1580485619.455,412530
1580485629.454,412531
1580485639.451,412531
1580485649.451,412532
1580485659.453,412532
1580485669.452,412533
1580485679.453,412534
1580485689.451,412534
1580485699.453,412536
1580485709.453,412536
1580485719.452,412536
1580485729.452,412538
1580485739.454,412540
1580485749.451,412542
1580485759.451,412544
1580485769.451,412544
1580485779.451,412544
1580485789.451,412545
1580485799.451,412545
1580485809.451,412547
1580485819.453,412548
1580485829.453,412548
1580485839.454,412548
1580485849.452,412548
1580485859.452,412548
1580485869.452,412549
1580485879.451,412550
1580485889.451,412550
1580485899.453,412552
1580485909.453,412552
1580485919.454,412552
1580485929.451,412552
1580485939.452,412553
1580485949.452,412555
1580485959.452,412555
1580485969.453,412557
1580485979.452,412557
1580485989.451,412558
1580485999.451,412558
1580486009.454,412558
1580486019.453,412558
1580486029.451,412559
1580486039.451,412559
1580486049.451,412559
1580486059.452,412559
1580486069.452,412560
1580486079.451,412560
1580486089.452,412561
1580486099.454,412562
1580486109.452,412562
1580486119.451,412562
1580486129.453,412564
1580486139.452,412564
1580486149.451,412565
1580486159.453,412566
1580486169.451,412567
1580486179.452,412568
1580486189.451,412568
1580486199.451,412568
1580486209.452,412570
1580486219.451,412570
1580486229.451,412572
1580486239.452,412573
1580486249.452,412574
1580486259.452,412575
1580486269.451,412576
1580486279.451,412576
1580486289.451,412576
1580486299.452,412576
1580486309.453,412576
1580486319.452,412576
1580486329.451,412576
1580486339.452,412576
1580486349.452,412576
1580486359.456,412577
1580486369.452,412578
1580486379.453,412578
1580486389.452,412578
1580486399.451,412578
1580486409.452,412579
1580486419.452,412580
1580486429.452,412580
1580486439.452,412581
1580486449.452,412584
1580486459.453,412584
1580486469.451,412585
1580486479.452,412586
1580486489.451,412586
1580486499.452,412586
1580486509.452,412586
1580486519.452,412586
1580486529.451,412587
1580486539.453,412590
1580486549.452,412590
1580486559.452,412590
1580486569.452,412591
1580486579.451,412591
1580486589.452,412591
1580486599.451,412592
1580486609.452,412592
1580486619.452,412593
1580486629.451,412594
1580486639.452,412596
1580486649.454,412596
1580486659.451,412597
1580486669.454,412597
1580486679.452,412598
1580486689.453,412598
1580486699.452,412598
1580486709.452,412599
1580486719.452,412600
1580486729.452,412600
1580486739.451,412602
