epoch,value
1580837956.391,9228
1580837966.371,9228
1580837976.369,9228
1580837986.370,9228
1580837996.371,9228
1580838006.370,9228
1580838016.370,9228
1580838026.370,9228
1580838036.370,9228
1580838046.373,9228
1580838056.370,9228
1580838066.370,9228
1580838076.371,9228
1580838086.369,9228
1580838096.370,9228
1580838106.370,9228
1580838116.369,9228
1580838126.369,9228
1580838136.372,9228
1580838146.370,9228
1580838156.370,9228
1580838166.370,9228
1580838176.369,9228
1580838186.369,9228
1580838196.369,9228
1580838206.369,9228
1580838216.369,9228
1580838226.370,9228
1580838236.369,9228
1580838246.370,9229
1580838256.371,9229
1580838266.369,9229
1580838276.370,9229
1580838286.369,9229
1580838296.370,9229
1580838306.369,9229
1580838316.369,9229
1580838326.369,9229
1580838336.370,9229
1580838346.369,9229
1580838356.370,9229
1580838366.369,9229
1580838376.370,9229
1580838386.369,9229
1580838396.370,9229
1580838406.369,9229
1580838416.370,9229
1580838426.369,9229
1580838436.370,9229
1580838446.369,9229
1580838456.369,9229
1580838466.369,9229
1580838476.369,9229
1580838486.370,9229
1580838496.369,9229
1580838506.370,9229
1580838516.370,9229
1580838526.369,9229
1580838536.369,9229
1580838546.369,9229
1580838556.370,9229
1580838566.371,9229
1580838576.369,9229
1580838586.370,9229
1580838596.369,9229
1580838606.370,9229
1580838616.369,9229
1580838626.369,9229
1580838636.369,9229
1580838646.372,9229
1580838656.370,9229
1580838666.369,9229
1580838676.369,9229
1580838686.370,9229
1580838696.369,9229
1580838706.370,9229
1580838716.369,9229
1580838726.369,9229
1580838736.369,9229
1580838746.371,9229
1580838756.369,9229
1580838766.371,9229
1580838776.369,9229
1580838786.370,9229
1580838796.369,9229
1580838806.370,9229
1580838816.369,9229
1580838826.369,9229
1580838836.369,9229
1580838846.370,9229
1580838856.370,9229
1580838866.369,9229
1580838876.370,9229
1580838886.369,9229
1580838896.370,9229
1580838906.370,9229
1580838916.372,9229
1580838926.370,9229
1580838936.369,9229
1580838946.369,9229
1580838956.370,9229
1580838966.369,9229
1580838976.370,9229
1580838986.369,9229
1580838996.370,9229
1580839006.370,9229
1580839016.369,9229
1580839026.369,9229
1580839036.369,9229
1580839046.369,9229
1580839056.369,9229
1580839066.369,9229
1580839076.371,9229
1580839086.370,9229
1580839096.369,9229
1580839106.370,9229
1580839116.372,9229
1580839126.369,9229
1580839136.369,9229
1580839146.370,9229
1580839156.369,9229
1580839166.369,9229
1580839176.370,9229
1580839186.370,9229
1580839196.370,9229
1580839206.369,9229
1580839216.371,9229
1580839226.371,9229
1580839236.369,9229
1580839246.370,9229
1580839256.369,9229
1580839266.370,9229
1580839276.370,9229
1580839286.371,9229
1580839296.370,9229
1580839306.369,9229
1580839316.370,9229
1580839326.369,9229
1580839336.369,9229
1580839346.372,9229
1580839356.370,9229
1580839366.369,9229
1580839376.372,9229
1580839386.371,9229
1580839396.369,9229
1580839406.369,9229
1580839416.369,9229
1580839426.369,9229
1580839436.372,9229
1580839446.370,9229
1580839456.369,9229
1580839466.370,9229
1580839476.369,9229
1580839486.370,9229
1580839496.370,9229
1580839506.371,9229
1580839516.370,9229
1580839526.370,9229
1580839536.370,9229
1580839546.369,9229
1580839556.369,9229
1580839566.370,9229
1580839576.370,9229
1580839586.369,9229
1580839596.370,9229
1580839606.370,9229
1580839616.369,9229
1580839626.370,9229
1580839636.370,9229
1580839646.369,9229
1580839656.369,9229
1580839666.369,9229
1580839676.369,9229
1580839686.371,9229
1580839696.372,9229
1580839706.371,9229
1580839716.371,9229
1580839726.370,9229
1580839736.369,9229
1580839746.369,9229
1580839756.371,9229
1580839766.369,9229
1580839776.370,9229
1580839786.372,9229
1580839796.369,9229
1580839806.372,9229
1580839816.371,9229
1580839826.370,9229
1580839836.369,9229
1580839846.370,9229
1580839856.370,9229
1580839866.370,9229
1580839876.371,9229
1580839886.370,9229
1580839896.370,9229
1580839906.370,9229
1580839916.371,9229
1580839926.369,9229
1580839936.371,9229
1580839946.373,9229
1580839956.370,9229
1580839966.369,9229
1580839976.369,9229
1580839986.370,9229
1580839996.371,9229
1580840006.370,9229
1580840016.370,9229
1580840026.369,9229
1580840036.370,9230
1580840046.369,9230
1580840056.369,9230
1580840066.369,9230
1580840076.370,9230
1580840086.369,9230
1580840096.370,9230
1580840106.370,9230
1580840116.369,9230
1580840126.369,9230
1580840136.369,9230
1580840146.369,9230
1580840156.370,9230
1580840166.370,9230
1580840176.371,9230
1580840186.370,9230
1580840196.372,9230
1580840206.369,9230
1580840216.370,9230
1580840226.370,9230
1580840236.370,9230
1580840246.370,9230
1580840256.369,9230
1580840266.369,9230
1580840276.370,9230
1580840286.369,9230
1580840296.370,9230
1580840306.370,9230
1580840316.369,9230
1580840326.369,9230
1580840336.372,9230
1580840346.369,9230
1580840356.369,9230
1580840366.370,9230
1580840376.371,9230
1580840386.369,9230
1580840396.369,9230
1580840406.371,9230
1580840416.370,9230
1580840426.369,9230
1580840436.369,9230
1580840446.369,9230
1580840456.369,9230
1580840466.369,9230
1580840476.369,9230
1580840486.371,9230
1580840496.371,9230
