epoch,value
1580812795.443,441571
1580812805.429,441572
1580812815.426,441572
1580812825.426,441572
1580812835.426,441572
1580812845.427,441573
1580812855.425,441584
1580812865.425,441622
1580812875.426,441662
1580812885.425,441708
1580812895.426,441761
1580812905.425,441828
1580812915.425,441880
1580812925.425,441947
1580812935.425,442005
1580812945.426,442061
1580812955.425,442118
1580812965.426,442190
1580812975.425,442245
1580812985.425,442304
1580812995.425,442363
1580813005.425,442425
1580813015.427,442493
1580813025.425,442567
1580813035.425,442634
1580813045.425,442698
1580813055.426,442769
1580813065.427,442830
1580813075.425,442896
1580813085.425,442957
1580813095.425,443010
1580813105.425,443074
1580813115.425,443140
1580813125.426,443197
1580813135.425,443260
1580813145.425,443330
1580813155.425,443397
1580813165.425,443454
1580813175.425,443512
1580813185.425,443570
1580813195.425,443636
1580813205.425,443706
1580813215.425,443780
1580813225.425,443852
1580813235.425,443911
1580813245.425,443969
1580813255.425,443969
1580813265.428,443970
1580813275.425,443970
1580813285.428,443970
1580813295.425,443970
1580813305.427,443971
1580813315.426,443971
1580813325.425,443972
1580813335.425,443973
1580813345.425,443974
1580813355.426,443975
1580813365.426,443976
1580813375.425,443977
1580813385.426,443979
1580813395.428,443979
1580813405.425,443980
1580813415.425,443980
1580813425.425,443980
1580813435.427,443980
1580813445.425,443980
1580813455.425,443980
1580813465.425,443982
1580813475.425,443982
1580813485.425,443983
1580813495.426,443984
1580813505.425,443985
1580813515.425,443985
1580813525.425,443986
1580813535.425,443987
1580813545.428,443987
1580813555.425,443987
1580813565.425,443988
1580813575.425,443988
1580813585.425,443989
1580813595.425,443990
1580813605.427,443990
1580813615.425,443990
1580813625.426,443990
1580813635.425,443991
1580813645.426,443993
1580813655.426,443996
1580813665.426,443996
1580813675.425,443997
1580813685.425,443999
1580813695.427,443999
1580813705.425,444000
1580813715.427,444001
1580813725.425,444001
1580813735.426,444001
1580813745.426,444002
1580813755.426,444003
1580813765.425,444003
1580813775.425,444003
1580813785.425,444003
1580813795.428,444004
1580813805.425,444005
1580813815.425,444005
1580813825.425,444006
1580813835.425,444007
1580813845.425,444008
1580813855.425,444009
1580813865.425,444009
1580813875.425,444009
1580813885.425,444010
1580813895.426,444011
1580813905.426,444011
1580813915.425,444012
1580813925.427,444012
1580813935.426,444013
1580813945.425,444014
1580813955.426,444015
1580813965.427,444015
1580813975.425,444015
1580813985.426,444015
1580813995.426,444015
1580814005.425,444015
1580814015.425,444017
1580814025.425,444017
1580814035.425,444017
1580814045.425,444018
1580814055.425,444018
1580814065.425,444019
1580814075.425,444020
1580814085.425,444020
1580814095.427,444020
1580814105.426,444020
1580814115.425,444020
1580814125.425,444021
1580814135.425,444022
1580814145.427,444022
1580814155.425,444023
1580814165.425,444024
1580814175.426,444024
1580814185.425,444024
1580814195.425,444024
1580814205.425,444024
1580814215.425,444024
1580814225.426,444024
1580814235.425,444025
1580814245.425,444025
1580814255.425,444025
1580814265.425,444026
1580814275.425,444026
1580814285.429,444026
1580814295.425,444026
1580814305.426,444026
1580814315.425,444027
1580814325.425,444028
1580814335.426,444030
1580814345.425,444030
