epoch,value
1579936765.423,0
1579936775.423,0
1579936785.423,0
1579936795.423,7
1579936805.423,14
1579936815.423,27
1579936825.423,42
1579936835.423,63
1579936845.423,65
1579936855.423,68
1579936865.423,83
1579936875.423,98
1579936885.423,117
1579936895.423,135
1579936905.423,144
1579936915.423,148
1579936925.423,156
1579936935.423,169
1579936945.424,192
1579936955.423,215
1579936965.423,217
1579936975.423,229
1579936985.423,232
1579936995.423,240
1579937005.423,247
1579937015.423,251
1579937025.423,263
1579937035.423,268
1579937045.423,268
1579937055.423,277
1579937065.423,292
1579937075.423,297
1579937085.423,308
1579937095.423,319
1579937105.428,319
1579937115.423,320
1579937125.423,320
1579937135.423,320
1579937145.423,320
1579937155.429,320
1579937165.423,320
1579937175.423,320
1579937185.423,320
1579937195.423,320
1579937215.423,321
1579937225.423,322
1579937235.423,322
1579937245.423,322
1579937255.423,322
1579937265.423,322
1579937275.423,322
1579937285.423,322
1579937295.423,323
1579937305.423,323
1579937315.423,323
1579937325.423,324
1579937335.423,324
1579937345.423,324
1579937355.423,324
1579937365.423,324
1579937375.423,325
1579937385.423,325
1579937395.423,325
1579937405.423,325
1579937415.423,325
1579937425.427,325
1579937435.423,325
1579937445.423,325
1579937455.423,326
1579937465.423,326
1579937475.423,326
1579937485.423,326
1579937495.423,326
1579937505.423,326
1579937515.423,326
1579937525.423,326
1579937535.423,326
1579937545.423,326
1579937555.423,327
1579937565.423,327
1579937575.423,327
1579937585.423,327
1579937595.423,327
1579937605.423,327
1579937615.423,328
1579937625.423,328
1579937635.423,328
1579937645.423,328
1579937655.423,328
1579937665.423,328
1579937675.423,328
1579937685.423,328
1579937695.423,328
1579937705.425,328
1579937715.423,328
1579937725.423,329
1579937735.423,329
1579937745.423,329
1579937755.423,329
1579937765.423,329
1579937775.423,329
1579937785.423,329
1579937795.423,329
1579937805.423,329
1579937815.423,329
1579937825.423,329
1579937835.423,329
1579937845.423,329
1579937855.423,329
1579937865.423,329
1579937875.423,329
1579937885.423,330
1579937895.423,330
1579937905.423,330
1579937915.423,330
1579937925.423,330
1579937935.423,330
1579937945.423,330
1579937955.423,330
1579937965.423,331
1579937975.423,331
1579937985.423,331
1579937995.423,331
1579938005.423,331
1579938015.423,331
1579938025.423,331
1579938035.423,331
1579938045.423,331
1579938055.423,331
1579938065.423,331
1579938075.423,331
1579938085.423,331
1579938095.423,331
1579938105.423,331
1579938115.423,331
1579938125.423,331
1579938135.423,332
1579938145.423,332
1579938155.423,332
1579938165.423,332
1579938175.423,332
1579938185.423,332
1579938195.423,332
1579938205.423,332
1579938215.423,332
1579938225.423,333
1579938235.423,333
1579938245.423,333
1579938255.423,333
1579938265.423,333
1579938275.423,333
1579938285.423,333
1579938295.423,333
1579938305.423,333
1579938315.423,333
1579938325.423,333
1579938335.423,333
1579938345.423,334
1579938355.423,334
1579938365.423,334
1579938375.423,334
1579938385.423,334
1579938395.423,334
1579938405.423,334
1579938415.423,334
1579938425.423,334
1579938435.423,334
1579938445.423,334
1579938455.423,334
1579938465.423,334
1579938475.423,334
1579938485.423,334
1579938495.423,334
1579938505.423,334
1579938515.423,334
1579938525.423,335
1579938535.423,335
1579938545.423,335
1579938555.423,335
1579938565.423,335
1579938575.423,335
1579938585.423,335
1579938595.423,335
1579938605.423,335
1579938615.423,335
1579938625.423,335
1579938635.423,335
1579938645.423,335
1579938655.425,335
1579938665.423,335
1579938675.425,335
1579938685.423,336
1579938695.423,336
1579938705.423,336
1579938715.423,336
1579938725.423,336
1579938735.423,336
1579938745.423,336
1579938755.423,336
1579938765.423,336
1579938775.423,336
1579938785.423,336
1579938795.423,336
1579938805.423,336
1579938815.423,336
1579938825.423,336
1579938835.423,336
1579938845.423,336
1579938855.423,336
1579938865.423,336
1579938875.426,337
1579938885.423,337
1579938895.423,337
1579938905.423,337
1579938915.423,337
1579938925.423,337
1579938935.423,337
1579938945.423,337
1579938955.423,337
1579938965.423,337
1579938975.423,337
1579938985.423,337
1579938995.425,338
1579939005.423,338
1579939015.423,338
1579939025.423,338
1579939035.423,338
1579939045.423,338
1579939055.423,338
1579939065.423,338
1579939075.423,338
1579939085.423,338
1579939095.423,338
1579939105.428,338
1579939115.423,338
1579939125.423,338
1579939135.423,338
1579939145.423,338
1579939155.423,338
1579939165.423,338
1579939175.423,339
1579939185.423,339
1579939195.423,339
1579939205.423,339
1579939215.423,339
1579939225.423,339
1579939235.423,339
1579939245.423,340
1579939255.423,340
1579939265.423,340
1579939275.423,340
1579939285.423,340
1579939295.423,340
1579939305.423,340
1579939315.423,340
1579939325.423,340
1579939335.423,340
1579939345.423,340
1579939355.423,340
1579939365.423,341
1579939375.423,341
1579939385.423,341
1579939395.423,341
1579939405.423,341
1579939415.423,341
1579939425.423,341
1579939435.423,341
1579939445.423,341
1579939455.423,341
1579939465.423,341
1579939475.423,341
1579939485.423,341
1579939495.423,342
