epoch,value
1579806806.871,238583
1579806816.852,238584
1579806826.852,238584
1579806836.851,238584
1579806846.852,238585
1579806856.851,238585
1579806866.851,238587
1579806876.852,238591
1579806886.851,238607
1579806896.853,238609
1579806906.853,238619
1579806916.852,238624
1579806926.852,238632
1579806936.852,238642
1579806946.851,238648
1579806956.854,238660
1579806966.851,238666
1579806976.852,238673
1579806986.853,238676
1579806996.851,238691
1579807006.851,238695
1579807016.851,238703
1579807026.852,238717
1579807036.852,238718
1579807046.851,238721
1579807056.852,238730
1579807066.851,238740
1579807076.851,238748
1579807086.852,238755
1579807096.852,238765
1579807106.851,238770
1579807116.852,238780
1579807126.851,238789
1579807136.853,238808
1579807146.851,238814
1579807156.852,238828
1579807166.853,238828
1579807176.853,238828
1579807186.852,238829
1579807196.851,238830
1579807206.851,238830
1579807216.851,238831
1579807226.852,238832
1579807236.852,238832
1579807246.851,238833
1579807256.851,238833
1579807266.851,238833
1579807276.851,238834
1579807286.852,238834
1579807296.852,238836
1579807306.851,238836
1579807316.853,238836
1579807326.853,238839
1579807336.852,238840
1579807346.852,238840
1579807356.852,238842
1579807366.852,238842
1579807376.852,238842
1579807386.851,238842
1579807396.852,238843
1579807406.852,238844
1579807416.852,238844
1579807426.852,238844
1579807436.852,238845
1579807446.853,238846
1579807456.851,238847
1579807466.853,238847
1579807476.852,238848
1579807486.851,238848
1579807496.852,238848
1579807506.852,238848
1579807516.852,238848
1579807526.851,238850
1579807536.852,238851
1579807546.852,238852
1579807556.851,238854
1579807566.851,238854
1579807576.851,238854
1579807586.851,238856
1579807596.852,238857
1579807606.852,238857
1579807616.852,238858
1579807626.851,238860
1579807636.853,238861
1579807646.852,238861
1579807656.851,238862
1579807666.851,238863
1579807676.852,238864
1579807686.851,238864
1579807696.851,238865
1579807706.852,238865
1579807716.852,238866
1579807726.853,238866
1579807736.851,238866
1579807746.852,238866
1579807756.851,238868
1579807766.851,238868
1579807776.851,238868
1579807786.851,238868
1579807796.852,238868
1579807806.852,238871
1579807816.851,238872
1579807826.851,238873
1579807836.852,238875
1579807846.851,238875
1579807856.851,238875
1579807866.852,238875
1579807876.853,238876
1579807886.853,238876
1579807896.852,238877
1579807906.851,238877
1579807916.853,238878
1579807926.851,238878
1579807936.851,238879
1579807946.852,238879
1579807956.851,238879
1579807966.851,238879
1579807976.852,238879
1579807986.852,238880
1579807996.852,238881
1579808006.851,238881
1579808016.853,238882
1579808026.852,238882
1579808036.851,238882
1579808046.851,238884
1579808056.851,238884
1579808066.852,238884
1579808076.851,238884
1579808086.851,238884
1579808096.851,238886
1579808106.852,238886
1579808116.853,238886
1579808126.852,238886
1579808136.851,238887
1579808146.852,238888
1579808156.852,238888
1579808166.851,238888
1579808176.852,238890
1579808186.852,238890
1579808196.852,238891
1579808206.854,238891
1579808216.854,238893
1579808226.851,238893
1579808236.852,238893
1579808246.852,238894
1579808256.853,238894
1579808266.853,238894
1579808276.852,238894
1579808286.851,238894
1579808296.853,238895
1579808306.851,238895
1579808316.851,238896
1579808326.851,238896
1579808336.852,238897
1579808346.852,238898
1579808356.853,238898
1579808366.851,238898
