epoch,value
1579812441.596,37988
1579812451.575,37988
1579812461.575,37988
1579812471.576,37988
1579812481.575,37988
1579812491.576,37988
1579812501.576,37988
1579812511.575,37988
1579812521.575,37990
1579812531.575,37990
1579812541.575,37990
1579812551.575,37990
1579812561.575,37991
1579812571.575,37991
1579812581.575,37991
1579812591.575,37991
1579812601.575,37992
1579812611.576,37992
1579812621.576,37992
1579812631.575,37992
1579812641.575,37992
1579812651.575,37992
1579812661.575,37992
1579812671.574,37992
1579812681.575,37992
1579812691.575,37992
1579812701.575,37992
1579812711.578,37992
1579812721.575,37992
1579812731.575,37992
1579812741.575,37992
1579812751.575,37992
1579812761.575,37992
1579812771.575,37992
1579812781.575,37992
1579812791.575,37992
1579812801.576,37993
1579812811.575,37993
1579812821.575,37993
1579812831.575,37993
1579812841.576,37993
1579812851.575,37994
1579812861.575,37994
1579812871.575,37994
1579812881.575,37994
1579812891.577,37994
1579812901.575,37994
1579812911.575,37994
1579812921.575,37994
1579812931.575,37994
1579812941.575,37994
1579812951.575,37994
1579812961.575,37994
1579812971.575,37994
1579812981.577,37994
1579812991.577,37994
1579813001.574,37994
1579813011.575,37994
1579813021.579,37994
1579813031.575,37994
1579813041.575,37994
1579813051.574,37996
1579813061.575,37996
1579813071.574,37997
1579813081.574,37997
1579813091.575,37997
1579813101.577,37997
1579813111.578,37997
1579813121.575,37997
1579813131.576,37997
1579813141.575,37997
1579813151.575,37997
1579813161.574,37997
1579813171.574,37998
1579813181.575,37998
1579813191.575,37998
1579813201.575,37998
1579813211.575,37999
1579813221.575,37999
1579813231.574,38001
1579813241.575,38002
1579813251.575,38003
1579813261.575,38003
1579813271.575,38003
1579813281.575,38003
1579813291.575,38003
1579813301.575,38003
1579813311.575,38003
1579813321.575,38003
1579813331.574,38003
1579813341.575,38003
1579813351.574,38003
1579813361.574,38004
1579813371.574,38004
1579813381.575,38004
1579813391.575,38004
1579813401.575,38004
1579813411.575,38004
1579813421.575,38004
1579813431.576,38004
1579813441.575,38004
1579813451.575,38004
1579813461.575,38004
1579813471.575,38004
1579813481.575,38004
1579813491.575,38004
1579813501.574,38004
1579813511.575,38005
1579813521.575,38005
1579813531.575,38005
1579813541.575,38005
1579813551.574,38005
1579813561.576,38005
1579813571.577,38005
1579813581.575,38005
1579813591.575,38005
1579813601.575,38005
1579813611.574,38005
1579813621.575,38005
1579813631.576,38005
1579813641.574,38005
1579813651.575,38005
1579813661.575,38005
1579813671.575,38005
1579813681.575,38008
1579813691.575,38008
1579813701.574,38008
1579813711.575,38010
1579813721.574,38011
1579813731.575,38012
1579813741.575,38013
1579813751.576,38014
1579813761.575,38014
1579813771.574,38015
1579813781.575,38015
1579813791.576,38015
1579813801.574,38015
1579813811.575,38015
1579813821.576,38015
1579813831.575,38015
1579813841.575,38015
1579813851.575,38015
1579813861.575,38015
1579813871.575,38015
1579813881.575,38015
1579813891.575,38015
1579813901.575,38015
1579813911.575,38016
1579813921.575,38016
1579813931.575,38016
1579813941.574,38016
1579813951.576,38016
1579813961.575,38016
1579813971.574,38017
1579813981.575,38017
1579813991.575,38018
1579814001.576,38018
