epoch,value
1580603322.239,0
1580603332.239,0
1580603342.239,0
1580603352.239,5
1580603362.239,20
1580603372.240,33
1580603382.239,48
1580603392.239,64
1580603402.239,77
1580603412.239,86
1580603422.239,91
1580603432.239,103
1580603442.239,125
1580603452.239,141
1580603462.239,154
1580603472.240,171
1580603482.239,178
1580603492.239,184
1580603502.240,203
1580603512.239,218
1580603522.239,226
1580603532.239,234
1580603542.239,254
1580603552.239,262
1580603562.239,287
1580603572.239,291
1580603582.239,307
1580603592.239,324
1580603602.240,341
1580603612.239,347
1580603622.239,349
1580603632.239,352
1580603642.239,375
1580603652.239,375
1580603662.239,375
1580603672.239,375
1580603682.239,375
1580603692.239,375
1580603702.239,375
1580603712.239,375
1580603722.239,376
1580603732.239,376
1580603742.239,376
1580603752.241,376
1580603762.239,376
1580603772.239,376
1580603782.239,376
1580603792.239,376
1580603802.239,376
1580603812.239,376
1580603822.239,376
1580603832.239,376
1580603842.239,376
1580603852.239,376
1580603862.239,376
1580603872.239,376
1580603882.239,376
1580603892.239,376
1580603902.239,376
1580603912.239,376
1580603922.239,376
1580603932.239,376
1580603942.239,376
1580603952.239,376
1580603962.239,376
1580603972.239,376
1580603982.239,376
1580603992.239,376
1580604002.239,376
1580604012.239,376
1580604022.239,376
1580604032.239,376
1580604042.239,376
1580604052.239,376
1580604062.239,376
1580604072.239,376
1580604082.239,376
1580604092.239,376
1580604102.239,376
1580604112.239,376
1580604122.239,376
1580604132.246,376
1580604142.239,376
1580604152.239,376
1580604162.239,376
1580604172.241,376
1580604182.239,377
1580604192.239,377
1580604202.239,377
1580604212.239,377
1580604222.239,377
1580604232.239,377
1580604242.239,377
1580604252.239,377
1580604262.239,377
1580604272.239,377
1580604282.240,377
1580604292.239,377
1580604302.239,377
1580604312.239,377
1580604322.239,377
1580604332.239,377
1580604342.239,377
1580604352.239,377
1580604362.239,377
1580604372.239,377
1580604382.239,377
1580604392.239,377
1580604402.239,377
1580604412.239,377
1580604422.240,377
1580604432.239,377
1580604442.239,377
1580604452.239,377
1580604462.239,377
1580604472.240,377
1580604482.239,377
1580604492.239,377
1580604502.240,377
1580604512.239,377
1580604522.239,377
1580604532.239,377
1580604542.239,377
1580604552.239,377
1580604562.239,377
1580604572.239,377
1580604582.239,377
1580604592.239,377
1580604602.239,377
1580604612.239,377
1580604622.239,378
1580604632.239,378
1580604642.240,378
1580604652.240,378
1580604662.240,378
1580604672.239,378
1580604682.239,378
1580604692.241,378
1580604702.239,378
1580604712.239,378
1580604722.241,378
1580604732.239,378
1580604742.239,378
1580604752.240,378
1580604762.239,378
1580604772.239,378
1580604782.239,378
1580604792.240,378
1580604802.239,378
1580604812.239,378
1580604822.239,378
1580604832.239,378
1580604842.239,378
1580604852.239,378
1580604862.239,378
1580604872.239,378
1580604882.239,378
1580604892.239,378
1580604902.240,378
1580604912.239,378
1580604922.241,378
1580604932.239,378
1580604942.239,378
1580604952.240,378
1580604962.240,378
1580604972.239,378
1580604982.239,378
1580604992.239,378
1580605002.239,378
1580605012.239,378
1580605022.239,378
1580605032.239,378
1580605042.239,378
1580605052.239,378
1580605062.239,378
1580605072.241,378
1580605082.239,378
1580605092.240,378
1580605102.240,378
1580605112.239,378
1580605122.239,378
1580605132.239,378
1580605142.239,378
1580605152.239,378
1580605162.239,378
1580605172.239,378
1580605182.240,378
1580605192.239,378
1580605202.240,378
1580605212.240,378
1580605222.239,378
1580605232.239,378
1580605242.239,378
1580605252.239,378
1580605262.239,378
1580605272.239,378
1580605282.239,378
1580605292.239,378
1580605302.245,378
1580605312.239,378
1580605322.239,378
1580605332.239,378
1580605342.239,378
1580605352.239,378
1580605362.239,378
1580605372.239,378
1580605382.239,378
1580605392.239,378
1580605402.239,378
1580605412.239,378
1580605422.239,378
1580605432.239,378
1580605442.239,378
1580605452.239,378
1580605462.239,378
1580605472.239,378
1580605482.239,378
1580605492.240,378
1580605502.239,378
1580605512.239,378
1580605522.239,378
1580605532.240,378
1580605542.239,378
1580605552.239,378
1580605562.239,378
1580605572.239,378
1580605582.239,378
1580605592.239,378
1580605602.240,378
1580605612.239,378
1580605622.239,378
1580605632.239,378
1580605642.239,378
1580605652.242,378
1580605662.239,378
1580605672.239,378
1580605682.239,378
1580605692.240,378
1580605702.239,378
1580605712.239,378
1580605722.239,378
1580605732.239,378
1580605742.239,378
1580605752.239,378
1580605762.239,378
1580605772.239,378
1580605782.239,378
1580605792.239,378
1580605802.239,379
1580605812.239,379
1580605822.239,379
1580605832.239,379
1580605842.240,379
1580605852.239,379
1580605862.239,379
1580605872.239,379
1580605882.239,379
1580605892.239,379
1580605902.239,379
1580605912.239,379
1580605922.239,379
1580605932.239,379
1580605942.239,379
1580605952.239,379
1580605962.239,379
1580605972.239,379
1580605982.239,379
1580605992.239,379
1580606002.239,379
1580606012.240,379
1580606022.239,379
1580606032.239,379
1580606042.239,379
1580606052.239,379
1580606062.239,379
1580606072.239,379
1580606082.239,379
1580606092.239,379
1580606102.239,379
1580606112.239,379
1580606122.239,379
1580606132.239,379
1580606142.239,379
1580606152.239,379
1580606162.245,379
1580606172.239,379
1580606182.239,379
1580606192.239,379
1580606202.245,379
1580606212.239,379
1580606222.239,379
1580606232.239,380
1580606242.239,380
1580606252.239,380
1580606262.239,380
1580606272.239,380
1580606282.239,380
1580606292.239,380
1580606302.239,380
1580606312.239,380
1580606322.239,380
1580606332.239,380
1580606342.239,380
1580606352.239,380
1580606362.239,380
1580606372.241,380
1580606382.239,380
1580606392.239,380
1580606402.239,380
1580606412.239,380
1580606422.239,380
1580606432.239,380
1580606442.239,380
1580606452.239,380
1580606462.239,380
1580606472.239,380
1580606482.240,380
1580606492.241,380
1580606502.239,380
1580606512.245,380
1580606522.239,380
1580606532.239,380
1580606542.239,380
1580606552.239,380
1580606562.239,380
1580606572.239,380
1580606582.239,380
1580606592.239,380
1580606602.240,380
1580606612.239,380
1580606622.239,380
1580606632.239,380
1580606642.239,380
1580606652.239,380
1580606662.239,380
1580606672.239,380
1580606682.239,380
1580606692.240,380
1580606702.239,380
1580606712.239,380
1580606722.239,380
1580606732.239,380
1580606742.239,380
1580606752.239,380
1580606762.239,380
1580606772.239,380
1580606782.239,380
1580606792.239,380
1580606802.239,380
1580606812.239,380
1580606822.239,380
1580606832.239,380
1580606842.239,380
1580606852.239,380
1580606862.239,380
1580606872.239,380
1580606882.239,380
1580606892.239,380
1580606902.239,380
1580606912.239,380
1580606922.239,380
1580606932.239,380
1580606942.239,380
1580606952.239,380
1580606962.239,380
1580606972.239,380
1580606982.241,380
1580606992.239,380
1580607002.239,380
1580607012.239,381
1580607022.241,381
1580607032.239,381
1580607042.239,381
1580607052.239,381
1580607062.239,381
1580607072.239,381
1580607082.239,381
1580607092.239,381
1580607102.239,381
1580607112.239,381
1580607122.239,381
1580607132.239,381
1580607142.239,381
1580607152.239,381
1580607162.239,381
1580607172.239,381
1580607182.239,381
1580607192.239,381
1580607202.239,381
1580607212.239,381
1580607222.239,381
1580607232.239,381
1580607242.239,381
1580607252.239,381
1580607262.239,381
1580607272.239,381
1580607282.239,381
1580607292.239,381
1580607302.239,381
1580607312.239,381
1580607322.239,381
1580607332.239,381
1580607342.239,381
1580607352.239,381
1580607362.240,381
1580607372.239,381
1580607382.239,381
1580607392.239,381
1580607402.239,381
1580607412.239,381
1580607422.239,381
1580607432.239,381
1580607442.239,381
1580607452.239,381
1580607462.239,381
1580607472.239,381
1580607482.239,381
1580607492.245,381
1580607502.239,381
1580607512.239,382
1580607522.239,382
1580607532.239,382
1580607542.239,382
1580607552.239,382
1580607562.239,382
1580607572.241,382
1580607582.239,382
1580607592.239,382
1580607602.239,382
1580607612.239,382
1580607622.239,382
1580607632.239,382
1580607642.240,382
1580607652.241,382
1580607662.239,382
1580607672.239,382
1580607682.240,382
1580607692.239,382
1580607702.239,382
1580607712.239,382
1580607722.239,382
1580607732.239,382
1580607742.239,382
1580607752.239,382
1580607762.240,382
1580607772.239,382
1580607782.239,382
1580607792.239,382
1580607802.239,382
1580607812.239,382
1580607822.239,382
1580607832.239,382
1580607842.239,382
1580607852.240,382
1580607862.239,382
1580607872.239,382
1580607882.239,382
1580607892.241,382
1580607902.239,382
1580607912.239,382
1580607922.239,382
1580607932.239,383
1580607942.239,383
1580607952.239,383
1580607962.239,383
1580607972.239,383
1580607982.239,383
1580607992.239,383
1580608002.239,383
1580608012.239,383
1580608022.239,383
1580608032.239,383
1580608042.239,383
1580608052.239,383
1580608062.239,383
1580608072.239,383
1580608082.239,383
1580608092.239,383
1580608102.239,383
1580608112.239,383
1580608122.239,383
1580608132.239,383
1580608142.239,383
1580608152.239,383
1580608162.239,383
1580608172.239,383
1580608182.239,383
1580608192.240,383
1580608202.239,383
1580608212.239,383
1580608222.239,383
1580608232.239,383
1580608242.239,383
1580608252.239,383
1580608262.239,384
1580608272.239,384
1580608282.239,384
1580608292.240,384
1580608302.239,384
1580608312.245,384
1580608322.239,384
1580608332.239,384
1580608342.239,384
1580608352.246,384
1580608362.239,384
1580608372.239,384
1580608382.239,384
1580608392.239,384
1580608402.245,384
1580608412.239,384
1580608422.239,384
1580608432.239,384
1580608442.240,384
1580608452.239,384
1580608462.239,384
1580608472.241,384
1580608482.239,384
1580608492.244,384
1580608502.239,384
1580608512.239,384
1580608522.239,384
1580608532.239,384
1580608542.239,384
1580608552.239,385
1580608562.239,385
1580608572.239,385
1580608582.239,385
1580608592.241,385
1580608602.239,385
1580608612.239,385
1580608622.245,385
1580608632.239,385
1580608642.239,385
1580608652.239,385
1580608662.239,385
1580608672.239,385
1580608682.239,385
1580608692.239,385
1580608702.239,385
1580608712.239,385
1580608722.239,385
1580608732.239,385
1580608742.239,385
1580608752.239,385
1580608762.239,385
1580608772.239,385
1580608782.239,385
1580608792.239,385
1580608802.239,385
1580608812.239,385
1580608822.240,385
1580608832.239,385
1580608842.239,385
1580608852.239,385
1580608862.239,385
1580608872.239,385
1580608882.239,385
1580608892.239,385
1580608902.240,385
1580608912.239,385
1580608922.239,385
1580608932.239,385
1580608942.239,385
1580608952.239,385
1580608962.239,385
1580608972.239,386
1580608982.239,386
1580608992.239,386
1580609002.239,386
1580609012.240,386
1580609022.239,386
1580609032.239,386
1580609042.239,386
1580609052.239,386
1580609062.239,386
1580609072.239,386
1580609082.239,386
1580609092.239,386
1580609102.239,386
1580609112.239,386
1580609122.239,386
1580609132.239,386
1580609142.239,386
1580609152.239,387
1580609162.239,387
1580609172.239,387
1580609182.239,387
1580609192.240,387
1580609202.239,387
1580609212.239,387
1580609222.239,387
1580609232.240,387
1580609242.239,387
1580609252.239,387
1580609262.239,387
1580609272.239,387
1580609282.239,387
1580609292.239,387
1580609302.239,387
1580609312.239,387
1580609322.239,387
1580609332.239,388
1580609342.239,388
1580609352.239,388
1580609362.239,388
1580609372.239,388
1580609382.239,388
1580609392.239,388
1580609402.239,389
1580609412.239,389
1580609422.239,389
1580609432.239,389
1580609442.239,389
1580609452.239,389
1580609462.239,389
1580609472.239,389
1580609482.239,389
1580609492.239,389
1580609502.239,389
1580609512.239,389
1580609522.239,389
1580609532.239,389
1580609542.239,389
1580609552.239,389
1580609562.239,389
1580609572.239,389
1580609582.239,389
1580609592.239,389
1580609602.239,389
1580609612.239,389
1580609622.239,389
1580609632.239,389
1580609642.239,389
1580609652.239,389
1580609662.239,389
1580609672.241,389
1580609682.239,389
1580609692.239,389
1580609702.239,389
1580609712.239,389
1580609722.239,389
1580609732.239,389
1580609742.239,389
1580609752.239,389
1580609762.245,390
1580609772.239,390
1580609782.239,390
1580609792.239,390
1580609802.239,390
1580609812.241,390
1580609822.239,390
1580609832.239,390
1580609842.239,390
1580609852.239,390
1580609862.239,390
1580609872.239,390
1580609882.239,390
1580609892.239,390
1580609902.239,390
1580609912.239,390
1580609922.245,390
1580609932.239,390
1580609942.239,390
1580609952.239,390
1580609962.240,390
1580609972.240,390
1580609982.239,390
1580609992.239,390
1580610002.240,390
1580610012.239,391
1580610022.239,391
1580610032.239,391
1580610042.239,391
1580610052.239,391
1580610062.239,391
1580610072.239,391
1580610082.239,391
1580610092.239,391
1580610102.239,391
1580610112.239,391
1580610122.239,391
1580610132.239,391
1580610142.239,391
1580610152.239,391
1580610162.239,391
1580610172.239,391
1580610182.239,391
1580610192.239,391
1580610202.239,391
1580610212.239,392
1580610222.239,392
1580610232.239,392
1580610242.239,392
1580610252.239,392
1580610262.239,392
1580610272.239,392
1580610282.239,392
1580610292.239,392
1580610302.239,392
1580610312.239,392
1580610322.239,392
1580610332.239,392
1580610342.239,392
1580610352.241,392
1580610362.239,392
1580610372.239,392
1580610382.239,392
1580610392.239,393
1580610402.239,393
1580610412.239,393
1580610422.239,393
1580610432.240,393
1580610442.239,393
1580610452.239,393
1580610462.239,393
1580610472.239,393
1580610482.239,393
1580610492.239,393
1580610502.239,393
1580610512.239,393
1580610522.239,393
1580610532.239,393
1580610542.239,393
1580610552.239,393
1580610562.239,393
1580610572.239,393
1580610582.239,394
1580610592.239,394
1580610602.239,394
1580610612.239,394
1580610622.239,394
1580610632.240,394
1580610642.239,394
1580610652.239,394
1580610662.239,394
1580610672.239,394
1580610682.239,394
1580610692.239,394
1580610702.239,394
1580610712.239,394
1580610722.239,394
1580610732.239,394
1580610742.239,394
1580610752.239,394
1580610762.239,394
1580610772.239,394
1580610782.239,394
1580610792.239,394
1580610802.239,394
1580610812.240,394
1580610822.239,394
1580610832.239,394
1580610842.239,395
1580610852.239,395
1580610862.239,395
1580610872.239,395
1580610882.239,395
1580610892.239,395
1580610902.239,395
1580610912.239,395
1580610922.239,395
1580610932.239,395
1580610942.239,395
1580610952.239,395
1580610962.239,395
1580610972.239,395
1580610982.239,395
1580610992.239,395
1580611002.239,395
1580611012.239,395
1580611022.239,395
1580611032.239,395
1580611042.239,395
1580611052.239,395
1580611062.239,395
1580611072.239,395
1580611082.239,395
1580611092.239,395
1580611102.239,395
1580611112.239,395
1580611122.239,395
1580611132.239,395
1580611142.239,395
1580611152.239,395
1580611162.239,395
1580611172.239,396
1580611182.239,396
1580611192.240,396
1580611202.239,396
1580611212.239,396
1580611222.239,396
1580611232.239,396
1580611242.239,396
1580611252.239,396
1580611262.239,396
1580611272.239,396
1580611282.239,396
1580611292.239,396
1580611302.239,396
1580611312.239,396
1580611322.239,396
1580611332.239,396
1580611342.239,396
1580611352.239,396
1580611362.239,396
1580611372.239,396
1580611382.239,396
1580611392.239,396
1580611402.239,396
1580611412.240,396
1580611422.240,396
1580611432.239,396
1580611442.239,396
1580611452.239,396
