epoch,value
1580578223.472,417625
1580578233.453,417627
1580578243.453,417627
1580578253.453,417627
1580578263.455,417628
1580578273.453,417628
1580578283.453,417629
1580578293.453,417629
1580578303.454,417630
1580578313.453,417630
1580578323.453,417630
1580578333.453,417630
1580578343.453,417630
1580578353.453,417631
1580578363.453,417631
1580578373.453,417631
1580578383.453,417631
1580578393.454,417631
1580578403.453,417632
1580578413.454,417633
1580578423.457,417633
1580578433.454,417633
1580578443.453,417633
1580578453.453,417634
1580578463.453,417636
1580578473.453,417636
1580578483.453,417636
1580578493.453,417636
1580578503.453,417637
1580578513.453,417638
1580578523.453,417639
1580578533.453,417639
1580578543.453,417640
1580578553.453,417640
1580578563.454,417640
1580578573.453,417641
1580578583.453,417642
1580578593.453,417642
1580578603.453,417642
1580578613.453,417642
1580578623.453,417643
1580578633.453,417643
1580578643.455,417643
1580578653.455,417643
1580578663.453,417643
1580578673.453,417643
1580578683.453,417644
1580578693.454,417644
1580578703.453,417644
1580578713.454,417644
1580578723.453,417644
1580578733.453,417645
1580578743.454,417645
1580578753.453,417645
1580578763.453,417646
1580578773.454,417646
1580578783.453,417646
1580578793.453,417646
1580578803.453,417646
1580578813.453,417646
1580578823.453,417646
1580578833.453,417646
1580578843.453,417646
1580578853.453,417646
1580578863.453,417647
1580578873.454,417647
1580578883.453,417647
1580578893.453,417648
1580578903.453,417649
1580578913.453,417649
1580578923.453,417649
1580578933.454,417650
1580578943.453,417652
1580578953.453,417652
1580578963.453,417652
1580578973.453,417652
1580578983.453,417652
1580578993.454,417652
1580579003.453,417652
1580579013.455,417652
1580579023.453,417652
1580579033.453,417652
1580579043.453,417652
1580579053.453,417653
1580579063.457,417653
1580579073.453,417654
1580579083.453,417656
1580579093.453,417656
1580579103.453,417657
1580579113.453,417659
1580579123.453,417659
1580579133.453,417662
1580579143.453,417662
1580579153.455,417662
1580579163.453,417663
1580579173.453,417663
1580579183.453,417664
1580579193.453,417664
1580579203.453,417666
1580579213.453,417666
1580579223.454,417668
1580579233.453,417668
1580579243.453,417668
1580579253.453,417668
1580579263.453,417668
1580579273.453,417668
1580579283.453,417669
1580579293.453,417670
1580579303.454,417670
1580579313.453,417670
1580579323.455,417670
1580579333.453,417672
1580579343.453,417672
1580579353.453,417673
1580579363.453,417673
1580579373.453,417674
1580579383.454,417674
1580579393.453,417675
1580579403.453,417675
1580579413.453,417677
1580579423.457,417677
1580579433.453,417678
1580579443.453,417678
1580579453.453,417678
1580579463.453,417678
1580579473.453,417678
1580579483.454,417678
1580579493.453,417678
1580579503.454,417678
1580579513.454,417678
1580579523.453,417678
1580579533.453,417679
1580579543.453,417679
1580579553.453,417680
1580579563.453,417680
1580579573.453,417680
1580579583.453,417681
1580579593.454,417681
1580579603.453,417681
1580579613.453,417682
1580579623.453,417682
1580579633.453,417682
1580579643.453,417682
1580579653.453,417683
1580579663.453,417683
1580579673.453,417684
1580579683.453,417684
1580579693.457,417685
1580579703.453,417686
1580579713.453,417687
1580579723.453,417687
1580579733.453,417687
1580579743.453,417687
1580579753.453,417688
1580579763.453,417688
1580579773.455,417689
1580579783.453,417690
1580579793.453,417690
1580579803.453,417691
1580579813.454,417692
1580579823.453,417692
1580579833.453,417692
1580579843.453,417693
1580579853.453,417693
1580579863.453,417693
1580579873.453,417694
1580579883.453,417694
1580579893.453,417695
1580579903.454,417695
1580579913.453,417695
1580579923.453,417696
1580579933.453,417697
1580579943.453,417698
1580579953.453,417698
1580579963.453,417698
1580579973.453,417698
1580579983.453,417698
1580579993.453,417698
1580580003.454,417698
1580580013.453,417698
1580580023.453,417698
1580580033.453,417699
1580580043.453,417700
1580580053.453,417700
1580580063.453,417700
1580580073.453,417700
1580580083.453,417700
1580580093.454,417700
1580580103.453,417701
1580580113.453,417702
1580580123.455,417702
1580580133.454,417702
1580580143.453,417702
1580580153.454,417704
1580580163.453,417704
1580580173.453,417705
1580580183.453,417705
1580580193.453,417708
1580580203.454,417708
1580580213.453,417709
1580580223.454,417710
1580580233.454,417710
1580580243.453,417711
1580580253.453,417712
1580580263.453,417713
1580580273.455,417714
1580580283.453,417716
1580580293.453,417716
1580580303.453,417717
1580580313.454,417718
1580580323.453,417719
1580580333.454,417719
1580580343.453,417719
1580580353.454,417722
1580580363.453,417722
1580580373.453,417722
1580580383.453,417722
1580580393.453,417723
1580580403.453,417724
1580580413.453,417726
1580580423.453,417726
1580580433.454,417726
1580580443.454,417726
1580580453.453,417726
1580580463.453,417726
1580580473.453,417726
1580580483.453,417726
1580580493.455,417727
1580580503.453,417728
1580580513.455,417728
1580580523.456,417730
1580580533.453,417731
1580580543.453,417731
1580580553.455,417732
1580580563.453,417733
1580580573.453,417733
1580580583.453,417734
1580580593.453,417734
1580580603.453,417736
1580580613.453,417736
1580580623.453,417736
1580580633.453,417736
1580580643.453,417737
1580580653.453,417738
1580580663.454,417738
1580580673.453,417740
1580580683.453,417741
1580580693.453,417742
1580580703.455,417742
1580580713.453,417742
1580580723.454,417742
1580580733.453,417743
1580580743.453,417743
1580580753.455,417743
1580580763.453,417744
1580580773.456,417744
1580580783.456,417744
1580580793.453,417746
1580580803.456,417747
1580580813.454,417748
1580580823.453,417749
1580580833.455,417750
1580580843.453,417751
1580580853.453,417752
1580580863.453,417752
1580580873.455,417752
1580580883.454,417752
1580580893.453,417752
1580580903.454,417753
1580580913.453,417753
1580580923.454,417753
1580580933.456,417753
1580580943.453,417754
1580580953.453,417754
1580580963.453,417754
1580580973.453,417754
1580580983.453,417754
1580580993.454,417754
1580581003.454,417754
1580581013.454,417755
1580581023.453,417756
1580581033.453,417756
1580581043.453,417758
1580581053.453,417760
1580581063.453,417760
1580581073.453,417760
1580581083.453,417760
1580581093.453,417760
1580581103.455,417760
1580581113.453,417760
1580581123.453,417760
1580581133.453,417760
1580581143.453,417762
1580581153.453,417762
1580581163.453,417762
1580581173.453,417763
1580581183.453,417763
1580581193.453,417764
1580581203.453,417764
1580581213.453,417764
1580581223.453,417764
1580581233.453,417764
1580581243.453,417764
1580581253.454,417765
1580581263.453,417766
1580581273.454,417766
1580581283.454,417767
1580581293.453,417767
1580581303.453,417768
1580581313.455,417768
1580581323.453,417768
1580581333.453,417770
1580581343.453,417770
1580581353.453,417770
1580581363.453,417771
1580581373.453,417772
1580581383.453,417772
1580581393.453,417775
1580581403.453,417776
1580581413.453,417777
1580581423.453,417778
1580581433.453,417778
1580581443.453,417778
1580581453.453,417778
1580581463.454,417778
1580581473.453,417778
1580581483.453,417779
1580581493.453,417780
1580581503.454,417780
1580581513.453,417781
1580581523.453,417781
1580581533.453,417781
1580581543.453,417782
1580581553.453,417782
1580581563.453,417782
1580581573.457,417783
1580581583.453,417783
1580581593.453,417784
1580581603.453,417785
1580581613.453,417785
1580581623.453,417786
1580581633.454,417786
1580581643.453,417789
1580581653.453,417789
1580581663.454,417789
1580581673.454,417789
1580581683.453,417789
1580581693.456,417790
1580581703.453,417791
1580581713.453,417793
1580581723.453,417793
1580581733.453,417793
1580581743.454,417794
1580581753.453,417796
1580581763.453,417796
1580581773.453,417798
1580581783.453,417798
1580581793.453,417799
1580581803.453,417799
1580581813.453,417799
1580581823.453,417799
1580581833.453,417801
1580581843.453,417801
1580581853.453,417801
1580581863.455,417801
1580581873.453,417802
1580581883.453,417803
1580581893.453,417805
1580581903.453,417806
1580581913.453,417807
1580581923.453,417807
1580581933.453,417808
1580581943.454,417808
1580581953.454,417810
1580581963.453,417810
1580581973.453,417811
1580581983.453,417811
1580581993.454,417811
1580582003.453,417813
1580582013.453,417814
1580582023.453,417814
1580582033.453,417814
1580582043.454,417815
1580582053.453,417816
1580582063.453,417817
1580582073.453,417819
1580582083.453,417819
1580582093.453,417821
1580582103.453,417822
1580582113.453,417822
1580582123.453,417823
1580582133.456,417824
1580582143.454,417824
1580582153.454,417825
1580582163.454,417825
1580582173.453,417826
1580582183.453,417826
1580582193.453,417826
1580582203.453,417827
1580582213.453,417827
1580582223.454,417828
1580582233.453,417830
1580582243.453,417830
1580582253.453,417830
1580582263.453,417830
1580582273.453,417831
1580582283.453,417832
1580582293.455,417834
1580582303.453,417836
1580582313.454,417837
1580582323.453,417839
1580582333.453,417839
1580582343.453,417841
1580582353.455,417843
1580582363.453,417843
1580582373.453,417844
1580582383.453,417844
1580582393.453,417845
1580582403.453,417845
1580582413.456,417846
1580582423.454,417846
1580582433.454,417847
1580582443.453,417848
1580582453.453,417848
1580582463.453,417849
1580582473.453,417850
1580582483.454,417850
1580582493.453,417850
1580582503.454,417850
1580582513.453,417851
1580582523.453,417852
1580582533.456,417853
1580582543.455,417853
1580582553.453,417854
1580582563.453,417855
1580582573.453,417855
1580582583.453,417855
1580582593.453,417856
1580582603.453,417858
1580582613.453,417858
1580582623.453,417858
1580582633.453,417859
1580582643.453,417859
1580582653.453,417860
1580582663.453,417861
1580582673.453,417863
1580582683.453,417863
1580582693.453,417865
1580582703.453,417866
1580582713.453,417867
1580582723.453,417868
1580582733.455,417868
1580582743.453,417868
1580582753.453,417868
1580582763.454,417869
1580582773.454,417869
1580582783.453,417869
1580582793.453,417871
1580582803.453,417871
1580582813.454,417871
1580582823.453,417872
1580582833.453,417872
1580582843.453,417874
1580582853.453,417874
1580582863.454,417875
1580582873.455,417875
1580582883.453,417878
1580582893.453,417878
1580582903.454,417878
1580582913.453,417879
1580582923.454,417880
1580582933.455,417881
1580582943.456,417882
1580582953.454,417883
1580582963.453,417884
1580582973.453,417884
1580582983.453,417884
1580582993.453,417884
1580583003.453,417885
1580583013.453,417885
1580583023.453,417885
1580583033.453,417885
1580583043.453,417885
1580583053.453,417885
1580583063.453,417885
1580583073.453,417887
1580583083.453,417887
1580583093.453,417887
1580583103.453,417888
1580583113.453,417888
1580583123.454,417889
1580583133.454,417890
1580583143.453,417890
1580583153.453,417890
1580583163.454,417890
1580583173.454,417890
1580583183.453,417891
1580583193.453,417891
1580583203.453,417891
1580583213.457,417894
1580583223.453,417894
1580583233.454,417894
1580583243.455,417895
1580583253.453,417895
1580583263.453,417895
1580583273.453,417895
1580583283.453,417895
1580583293.456,417895
1580583303.453,417896
1580583313.453,417896
1580583323.456,417898
1580583333.456,417898
1580583343.453,417898
1580583353.453,417898
1580583363.453,417898
1580583373.455,417899
1580583383.455,417899
1580583393.453,417899
1580583403.455,417899
1580583413.453,417899
1580583423.453,417900
1580583433.453,417900
1580583443.453,417900
1580583453.453,417900
1580583463.453,417900
1580583473.455,417900
1580583483.453,417901
1580583493.453,417901
1580583503.454,417902
1580583513.453,417902
1580583523.453,417903
1580583533.453,417904
1580583543.453,417905
1580583553.454,417907
1580583563.453,417908
1580583573.453,417908
1580583583.455,417910
1580583593.453,417910
1580583603.454,417910
1580583613.454,417910
1580583623.453,417910
1580583633.453,417910
1580583643.454,417910
1580583653.453,417910
1580583663.453,417910
1580583673.456,417910
1580583683.453,417910
1580583693.453,417911
1580583703.455,417912
1580583713.453,417912
1580583723.454,417912
1580583733.456,417913
1580583743.454,417913
1580583753.453,417914
1580583763.453,417915
1580583773.456,417915
1580583783.453,417915
1580583793.453,417915
1580583803.453,417915
1580583813.454,417916
1580583823.455,417917
1580583833.453,417918
1580583843.453,417919
1580583853.453,417919
1580583863.453,417919
1580583873.453,417920
1580583883.455,417920
1580583893.454,417921
1580583903.453,417921
1580583913.454,417922
1580583923.453,417923
1580583933.453,417924
1580583943.453,417924
1580583953.453,417924
1580583963.453,417924
1580583973.453,417924
1580583983.453,417924
1580583993.453,417924
1580584003.453,417926
1580584013.453,417926
1580584023.453,417926
1580584033.458,417928
1580584043.453,417928
1580584053.453,417928
1580584063.453,417929
1580584073.453,417929
1580584083.455,417931
1580584093.453,417931
1580584103.453,417933
1580584113.453,417934
1580584123.453,417934
1580584133.453,417934
1580584143.453,417934
1580584153.453,417936
1580584163.453,417937
1580584173.454,417938
1580584183.453,417938
1580584193.453,417940
1580584203.453,417940
1580584213.455,417942
1580584223.453,417942
1580584233.453,417942
1580584243.453,417943
1580584253.453,417943
1580584263.453,417943
1580584273.453,417944
1580584283.453,417944
1580584293.453,417944
1580584303.453,417945
1580584313.453,417946
1580584323.453,417946
1580584333.453,417946
1580584343.453,417946
1580584353.453,417946
1580584363.453,417948
1580584373.453,417950
1580584383.453,417950
1580584393.453,417950
1580584403.453,417951
1580584413.454,417951
1580584423.453,417952
1580584433.453,417952
1580584443.454,417952
1580584453.453,417952
1580584463.454,417952
1580584473.453,417953
1580584483.453,417953
1580584493.454,417953
1580584503.453,417954
1580584513.453,417954
1580584523.454,417954
1580584533.458,417954
1580584543.454,417955
1580584553.454,417956
1580584563.453,417956
1580584573.453,417956
1580584583.454,417956
1580584593.453,417956
1580584603.453,417956
1580584613.453,417957
1580584623.453,417957
1580584633.453,417958
1580584643.453,417958
1580584653.453,417958
1580584663.453,417960
1580584673.453,417962
1580584683.453,417963
1580584693.453,417964
1580584703.453,417964
1580584713.453,417964
1580584723.453,417965
1580584733.453,417967
1580584743.453,417970
1580584753.453,417970
1580584763.453,417971
1580584773.453,417971
1580584783.453,417972
1580584793.453,417972
1580584803.453,417974
1580584813.453,417975
1580584823.454,417975
1580584833.453,417975
1580584843.453,417975
1580584853.453,417975
1580584863.454,417975
1580584873.453,417977
1580584883.456,417977
1580584893.453,417979
1580584903.453,417980
1580584913.455,417980
1580584923.454,417980
1580584933.453,417981
1580584943.453,417982
1580584953.453,417984
1580584963.453,417984
1580584973.453,417984
1580584983.453,417984
1580584993.453,417984
1580585003.453,417984
1580585013.453,417984
1580585023.453,417984
1580585033.453,417985
1580585043.453,417986
1580585053.454,417986
1580585063.453,417986
1580585073.453,417986
1580585083.453,417988
1580585093.453,417989
1580585103.453,417989
1580585113.453,417989
1580585123.454,417990
1580585133.453,417991
1580585143.455,417992
1580585153.453,417992
1580585163.455,417992
1580585173.453,417992
1580585183.453,417992
1580585193.453,417992
1580585203.453,417993
1580585213.453,417994
1580585223.453,417995
1580585233.453,417996
1580585243.453,417996
1580585253.453,417996
1580585263.453,417996
1580585273.454,417997
1580585283.453,417998
1580585293.454,417999
1580585303.453,418000
1580585313.453,418002
1580585323.453,418003
1580585333.453,418004
1580585343.453,418005
1580585353.453,418005
1580585363.453,418006
1580585373.453,418006
1580585383.453,418007
1580585393.455,418007
1580585403.453,418008
1580585413.453,418008
1580585423.453,418009
1580585433.456,418010
1580585443.453,418010
1580585453.453,418010
1580585463.455,418010
1580585473.453,418010
1580585483.454,418010
1580585493.453,418011
1580585503.455,418012
1580585513.453,418012
1580585523.453,418012
1580585533.454,418012
1580585543.453,418013
1580585553.453,418013
1580585563.453,418014
1580585573.453,418015
1580585583.453,418016
1580585593.453,418017
1580585603.454,418017
1580585613.453,418018
1580585623.453,418018
1580585633.453,418019
1580585643.454,418019
1580585653.453,418019
1580585663.453,418019
1580585673.453,418019
1580585683.453,418020
1580585693.453,418020
1580585703.453,418020
1580585713.453,418020
1580585723.453,418020
1580585733.453,418021
1580585743.453,418023
1580585753.453,418025
1580585763.453,418025
1580585773.453,418025
1580585783.453,418025
1580585793.453,418025
1580585803.453,418025
1580585813.453,418025
1580585823.453,418027
1580585833.453,418028
1580585843.455,418028
1580585853.453,418029
1580585863.454,418029
1580585873.453,418030
1580585883.453,418030
1580585893.454,418033
1580585903.453,418033
1580585913.453,418033
1580585923.453,418034
1580585933.453,418036
1580585943.453,418037
1580585953.453,418038
1580585963.453,418038
1580585973.453,418038
1580585983.454,418039
1580585993.453,418040
1580586003.453,418041
1580586013.453,418041
1580586023.453,418043
1580586033.453,418043
1580586043.453,418043
1580586053.453,418044
1580586063.453,418044
1580586073.453,418044
1580586083.453,418044
1580586093.453,418045
1580586103.453,418046
1580586113.455,418046
1580586123.453,418048
1580586133.453,418048
1580586143.453,418048
1580586153.453,418048
1580586163.453,418049
1580586173.453,418050
1580586183.453,418052
1580586193.453,418052
1580586203.453,418052
1580586213.453,418052
1580586223.453,418052
1580586233.453,418052
1580586243.453,418054
1580586253.455,418054
1580586263.454,418055
1580586273.453,418056
1580586283.453,418056
1580586293.453,418058
1580586303.453,418060
1580586313.453,418061
1580586323.453,418061
1580586333.453,418061
1580586343.455,418062
1580586353.453,418063
1580586363.454,418063
1580586373.453,418064
1580586383.453,418064
