epoch,value
1580481698.458,8848
1580481708.441,8848
1580481718.439,8848
1580481728.438,8848
1580481738.444,8848
1580481748.439,8848
1580481758.440,8848
1580481768.438,8848
1580481778.438,8848
1580481788.439,8848
1580481798.438,8848
1580481808.438,8848
1580481818.438,8848
1580481828.438,8848
1580481838.438,8848
1580481848.438,8848
1580481858.438,8848
1580481868.438,8848
1580481878.440,8848
1580481888.438,8848
1580481898.439,8848
1580481908.438,8848
1580481918.439,8848
1580481928.438,8848
1580481938.439,8848
1580481948.440,8848
1580481958.439,8849
1580481968.438,8849
1580481978.439,8849
1580481988.438,8849
1580481998.439,8849
1580482008.438,8849
1580482018.438,8849
1580482028.439,8849
1580482038.438,8849
1580482048.438,8849
1580482058.438,8849
1580482068.438,8849
1580482078.438,8849
1580482088.439,8849
1580482098.438,8849
1580482108.438,8849
1580482118.439,8849
1580482128.438,8849
1580482138.438,8849
1580482148.439,8849
1580482158.438,8849
1580482168.438,8849
1580482178.438,8849
1580482188.438,8849
1580482198.438,8849
1580482208.438,8849
1580482218.439,8849
1580482228.438,8849
1580482238.438,8849
1580482248.438,8849
1580482258.438,8849
1580482268.438,8850
1580482278.438,8850
1580482288.438,8850
1580482298.439,8850
1580482308.439,8850
1580482318.438,8850
1580482328.438,8850
1580482338.438,8850
1580482348.439,8850
1580482358.440,8850
1580482368.438,8850
1580482378.438,8850
1580482388.438,8850
1580482398.440,8850
1580482408.439,8850
1580482418.438,8850
1580482428.439,8850
1580482438.440,8850
1580482448.438,8850
1580482458.439,8850
1580482468.441,8850
1580482478.438,8850
1580482488.438,8850
1580482498.438,8850
1580482508.439,8850
1580482518.439,8850
1580482528.438,8850
1580482538.441,8850
1580482548.438,8850
1580482558.438,8850
1580482568.438,8850
1580482578.439,8850
1580482588.439,8850
1580482598.438,8850
1580482608.439,8850
1580482618.438,8850
1580482628.438,8850
1580482638.438,8850
1580482648.439,8850
1580482658.439,8850
1580482668.438,8850
1580482678.439,8850
1580482688.439,8850
1580482698.438,8850
1580482708.439,8850
1580482718.438,8850
1580482728.438,8850
1580482738.438,8850
1580482748.439,8850
1580482758.438,8850
1580482768.441,8850
1580482778.439,8850
1580482788.438,8850
1580482798.439,8850
1580482808.438,8850
1580482818.438,8850
1580482828.441,8850
1580482838.438,8850
1580482848.438,8850
1580482858.438,8850
1580482868.441,8850
1580482878.438,8850
1580482888.439,8850
1580482898.438,8850
1580482908.438,8850
1580482918.439,8850
1580482928.439,8850
1580482938.439,8850
1580482948.438,8850
1580482958.438,8850
1580482968.438,8850
1580482978.439,8850
1580482988.438,8850
1580482998.438,8850
1580483008.438,8850
1580483018.440,8850
1580483028.442,8850
1580483038.438,8850
1580483048.439,8850
1580483058.440,8850
1580483068.438,8850
1580483078.440,8850
1580483088.439,8850
1580483098.438,8850
1580483108.438,8850
1580483118.438,8850
1580483128.439,8850
1580483138.439,8850
1580483148.439,8850
1580483158.438,8850
1580483168.443,8850
1580483178.439,8850
1580483188.438,8850
1580483198.438,8850
1580483208.438,8850
1580483218.438,8850
1580483228.438,8850
1580483238.438,8850
1580483248.438,8850
1580483258.439,8852
