epoch,value
1579924305.882,0
1579924315.882,0
1579924325.882,0
1579924335.882,0
1579924345.882,1
1579924355.882,1
1579924365.882,2
1579924375.882,3
1579924385.882,3
1579924395.882,3
1579924405.882,3
1579924415.882,4
1579924425.882,4
1579924435.882,5
1579924445.882,6
1579924455.882,6
1579924465.882,7
1579924475.882,7
1579924485.882,9
1579924495.883,11
1579924505.882,11
1579924515.888,32
1579924525.882,41
1579924535.882,51
1579924545.882,55
1579924555.883,56
1579924565.882,66
1579924575.882,69
1579924585.882,70
1579924595.882,81
1579924605.882,88
1579924615.882,91
1579924625.882,98
1579924635.882,103
1579924645.888,103
1579924655.882,103
1579924665.882,103
1579924675.882,103
1579924685.882,103
1579924695.882,103
1579924705.882,103
1579924715.882,103
1579924725.882,103
1579924735.882,103
1579924745.882,103
1579924755.882,103
1579924765.882,104
1579924775.882,104
1579924785.882,104
1579924795.882,104
1579924805.882,104
1579924815.882,104
1579924825.882,104
1579924835.882,104
1579924845.882,104
1579924855.882,104
1579924865.882,104
1579924875.882,104
1579924885.882,104
1579924895.882,104
1579924905.882,104
1579924915.882,104
1579924925.882,104
1579924935.882,104
1579924945.882,104
1579924955.882,104
1579924965.882,104
1579924975.882,104
1579924985.882,105
1579924995.882,105
1579925005.882,105
1579925015.882,105
1579925025.882,105
1579925035.882,105
1579925045.882,105
1579925055.882,105
1579925065.882,105
1579925075.882,105
1579925085.882,105
1579925095.882,105
1579925105.882,105
1579925115.882,105
1579925125.882,105
1579925135.882,105
1579925145.882,105
1579925155.882,105
1579925165.882,105
1579925175.882,105
1579925185.882,105
1579925195.883,105
1579925205.882,105
1579925215.882,105
1579925225.882,105
1579925235.882,105
1579925245.882,105
1579925255.882,105
1579925265.882,105
1579925275.882,105
1579925285.882,105
1579925295.882,105
1579925305.882,105
1579925315.882,105
1579925325.882,105
1579925335.882,105
1579925345.882,105
1579925355.882,105
1579925365.882,105
1579925375.882,105
1579925385.882,105
1579925395.882,105
1579925405.882,105
1579925415.882,105
1579925425.882,105
1579925435.882,105
1579925445.882,105
1579925455.888,105
1579925465.882,105
1579925475.882,106
1579925485.882,106
1579925495.882,106
1579925505.883,106
1579925515.882,106
1579925525.882,106
1579925535.882,106
1579925545.882,106
1579925555.882,106
1579925565.882,106
1579925575.882,106
1579925585.882,106
1579925595.882,106
1579925605.882,106
1579925615.882,106
1579925625.882,106
1579925635.882,106
1579925645.882,106
1579925655.882,106
1579925665.882,106
1579925675.882,106
1579925685.882,106
1579925695.882,106
1579925705.882,106
1579925715.882,107
1579925725.882,107
1579925735.882,107
1579925745.882,107
1579925755.882,107
1579925765.882,107
1579925775.882,107
1579925785.882,108
1579925795.882,108
1579925805.882,108
1579925815.882,108
1579925825.882,108
1579925835.882,108
1579925845.882,108
1579925855.882,108
1579925865.882,108
1579925875.882,108
1579925885.882,108
1579925895.882,108
1579925905.882,108
1579925915.882,108
1579925925.882,108
1579925935.882,108
1579925945.882,108
1579925955.882,108
1579925965.882,108
1579925975.882,108
1579925985.882,108
1579925995.882,108
1579926005.882,108
1579926015.882,108
1579926025.882,108
1579926035.882,109
1579926045.882,109
1579926055.882,109
1579926065.882,109
1579926075.882,109
1579926085.882,109
1579926095.882,109
1579926105.882,109
1579926115.882,109
1579926125.882,109
1579926135.882,109
1579926145.882,109
1579926155.882,109
1579926165.882,109
1579926175.882,110
1579926185.882,110
1579926195.882,110
1579926205.885,110
1579926215.882,110
1579926225.882,110
1579926235.882,110
1579926245.882,110
1579926255.882,110
1579926265.882,110
1579926275.882,110
1579926285.882,110
1579926295.883,110
1579926305.882,110
1579926315.882,110
1579926325.882,110
1579926335.882,110
1579926345.882,110
1579926355.882,110
1579926365.882,110
1579926375.882,110
1579926385.882,110
1579926395.882,110
1579926405.882,110
1579926425.882,111
1579926435.882,111
1579926445.882,111
1579926455.882,111
1579926465.882,111
1579926475.882,111
1579926485.882,111
1579926495.882,111
1579926505.882,111
1579926515.882,111
1579926525.882,111
1579926535.882,111
1579926545.882,111
1579926555.882,111
1579926565.882,111
1579926575.882,111
1579926585.882,111
1579926595.882,111
1579926605.882,111
1579926615.882,111
1579926625.882,111
1579926635.882,111
1579926645.882,111
1579926655.882,111
1579926665.882,111
1579926675.882,111
1579926685.882,111
1579926695.882,111
1579926705.882,111
1579926715.882,111
1579926725.882,111
1579926735.882,111
1579926745.882,111
1579926755.882,111
1579926765.882,111
1579926775.882,111
1579926785.882,111
1579926795.882,111
1579926805.882,111
1579926815.882,111
1579926825.882,112
1579926835.882,112
1579926845.882,112
1579926855.882,112
1579926865.882,112
1579926875.882,112
1579926885.882,112
1579926895.882,112
1579926905.882,112
1579926915.882,112
1579926925.882,112
1579926935.882,112
1579926945.882,112
1579926955.882,112
1579926965.882,112
1579926975.882,112
1579926985.882,112
1579926995.882,112
1579927005.882,112
1579927015.882,112
1579927025.882,112
1579927035.882,112
