epoch,value
1579933497.428,38379
1579933507.409,38380
1579933517.409,38380
1579933527.411,38380
1579933537.409,38381
1579933547.409,38381
1579933557.409,38381
1579933567.409,38381
1579933577.409,38381
1579933587.409,38381
1579933597.409,38381
1579933607.409,38381
1579933617.409,38381
1579933627.409,38381
1579933637.409,38381
1579933647.411,38381
1579933657.409,38381
1579933667.409,38381
1579933677.409,38381
1579933687.409,38381
1579933697.410,38381
1579933707.410,38381
1579933717.410,38382
1579933727.409,38382
1579933737.409,38382
1579933747.409,38382
1579933757.409,38382
1579933767.409,38382
1579933777.409,38382
1579933787.409,38382
1579933797.410,38382
1579933807.409,38382
1579933817.409,38382
1579933827.409,38382
1579933837.409,38382
1579933847.409,38382
1579933857.409,38382
1579933867.412,38382
1579933877.409,38382
1579933887.411,38382
1579933897.409,38383
1579933907.409,38383
1579933917.410,38383
1579933927.409,38383
1579933937.409,38383
1579933947.409,38383
1579933957.412,38383
1579933967.409,38383
1579933977.409,38383
1579933987.409,38383
1579933997.409,38384
1579934007.409,38384
1579934017.410,38384
1579934027.409,38384
1579934037.410,38384
1579934047.409,38384
1579934057.410,38385
1579934067.409,38385
1579934077.409,38385
1579934087.409,38385
1579934097.409,38385
1579934107.409,38385
1579934117.410,38385
1579934127.409,38385
1579934137.409,38385
1579934147.409,38385
1579934157.410,38385
1579934167.412,38385
1579934177.409,38385
1579934187.410,38385
1579934197.410,38385
1579934207.409,38385
1579934217.409,38385
1579934227.409,38385
1579934237.409,38385
1579934247.409,38385
1579934257.409,38385
1579934267.409,38385
1579934277.409,38385
1579934287.410,38385
1579934297.409,38385
1579934307.410,38385
1579934317.409,38386
1579934327.410,38386
1579934337.409,38386
1579934347.409,38386
1579934357.409,38386
1579934367.409,38386
1579934377.409,38386
1579934387.409,38386
1579934397.409,38386
1579934407.410,38386
1579934417.411,38386
1579934427.409,38386
1579934437.409,38387
1579934447.409,38387
1579934457.411,38387
1579934467.409,38387
1579934477.411,38387
1579934487.409,38387
1579934497.409,38387
1579934507.409,38388
1579934517.409,38389
1579934527.409,38389
1579934537.409,38390
1579934547.409,38390
1579934557.409,38390
1579934567.409,38390
1579934577.411,38390
1579934587.409,38390
1579934597.410,38392
1579934607.409,38392
1579934617.409,38392
1579934627.409,38392
1579934637.409,38392
1579934647.409,38392
1579934657.409,38392
1579934667.409,38392
1579934677.409,38392
1579934687.412,38392
1579934697.409,38392
1579934707.409,38392
1579934717.409,38393
1579934727.409,38394
1579934737.409,38395
1579934747.409,38395
1579934757.409,38395
1579934767.409,38395
1579934777.409,38395
1579934787.409,38395
1579934797.409,38395
1579934807.409,38395
1579934817.409,38395
1579934827.409,38395
1579934837.409,38395
1579934847.409,38395
1579934857.409,38396
1579934867.411,38396
1579934877.409,38396
1579934887.409,38396
1579934897.409,38396
1579934907.410,38396
1579934917.409,38396
1579934927.409,38396
1579934937.409,38396
1579934947.409,38396
1579934957.409,38396
1579934967.411,38396
1579934977.410,38396
1579934987.409,38396
1579934997.409,38396
1579935007.410,38396
1579935017.409,38396
1579935027.409,38397
1579935037.409,38397
1579935047.409,38397
1579935057.409,38397
1579935067.409,38397
1579935077.409,38397
1579935087.409,38397
1579935097.409,38397
1579935107.409,38397
1579935117.410,38397
1579935127.409,38397
1579935137.409,38398
1579935147.409,38398
1579935157.409,38398
1579935167.409,38398
1579935177.409,38398
1579935187.409,38398
1579935197.410,38398
1579935207.409,38398
1579935217.409,38399
1579935227.409,38400
1579935237.409,38400
1579935247.409,38400
1579935257.409,38400
1579935267.409,38400
1579935277.409,38400
1579935287.409,38400
1579935297.409,38400
1579935307.409,38400
1579935317.409,38400
1579935327.409,38400
1579935337.409,38400
1579935347.409,38400
1579935357.410,38401
1579935367.409,38401
1579935377.410,38401
1579935387.410,38401
1579935397.409,38401
1579935407.409,38401
1579935417.412,38401
1579935427.409,38401
1579935437.409,38401
1579935447.409,38401
1579935457.409,38401
1579935467.409,38401
1579935477.409,38402
1579935487.409,38402
1579935497.409,38402
1579935507.410,38402
1579935517.410,38402
1579935527.411,38402
1579935537.409,38402
1579935547.409,38402
1579935557.409,38402
1579935567.409,38402
1579935577.412,38402
1579935587.409,38402
1579935597.409,38402
1579935607.409,38402
1579935617.409,38402
1579935627.410,38402
1579935637.409,38402
1579935647.409,38402
1579935657.409,38403
1579935667.409,38403
1579935677.409,38403
1579935687.409,38403
1579935697.410,38404
1579935707.409,38404
1579935717.409,38404
1579935727.409,38404
1579935737.409,38404
1579935747.409,38404
1579935757.409,38404
1579935767.409,38405
1579935777.409,38405
1579935787.410,38405
1579935797.409,38405
1579935807.409,38405
1579935817.409,38405
1579935827.410,38405
1579935837.409,38405
1579935847.409,38405
1579935857.409,38405
1579935867.409,38406
1579935877.409,38406
1579935887.410,38406
1579935897.409,38406
1579935907.409,38406
1579935917.409,38406
1579935927.409,38406
1579935937.409,38406
1579935947.409,38406
1579935957.409,38406
1579935967.409,38406
1579935977.409,38406
1579935987.409,38406
1579935997.409,38406
1579936007.409,38408
1579936017.409,38408
1579936027.409,38408
1579936037.409,38408
1579936047.409,38408
1579936057.409,38408
1579936067.409,38408
1579936077.409,38408
1579936087.409,38408
1579936097.410,38408
1579936107.409,38408
1579936117.409,38408
1579936127.409,38408
1579936137.409,38408
1579936147.412,38408
1579936157.408,38408
1579936167.409,38408
1579936177.409,38408
1579936187.409,38408
1579936197.411,38409
1579936207.409,38409
1579936217.409,38409
1579936227.409,38410
1579936237.409,38410
1579936247.409,38410
1579936257.409,38410
