epoch,value
1580232434.528,0
1580232444.528,0
1580232454.532,0
1580232464.528,0
1580232474.528,0
1580232484.528,0
1580232494.528,0
1580232504.528,0
1580232514.528,0
1580232524.528,0
1580232534.528,0
1580232544.528,0
1580232554.528,1
1580232564.528,1
1580232574.529,1
1580232584.528,1
1580232594.528,1
1580232604.528,1
1580232614.528,1
1580232624.528,1
1580232634.528,1
1580232644.528,1
1580232654.528,1
1580232664.528,1
1580232674.528,1
1580232684.528,1
1580232694.528,1
1580232704.528,2
1580232714.528,2
1580232724.528,2
1580232734.528,2
1580232744.528,2
1580232754.528,2
1580232764.528,2
1580232774.528,2
1580232784.528,2
1580232794.528,2
1580232804.528,2
1580232814.528,2
1580232824.528,2
1580232834.528,2
1580232844.528,2
1580232854.528,3
1580232864.528,3
1580232874.528,3
1580232884.528,3
1580232894.528,3
1580232904.528,3
1580232914.528,3
1580232924.528,3
1580232934.528,3
1580232944.528,3
1580232954.529,3
1580232964.528,3
1580232974.528,3
1580232984.528,3
1580232994.528,3
1580233004.528,3
1580233014.528,4
1580233024.528,4
1580233034.528,4
1580233044.528,4
1580233054.528,4
1580233064.528,4
1580233074.528,4
1580233084.528,4
1580233094.528,4
1580233104.528,4
1580233114.537,4
1580233124.528,4
1580233134.528,4
1580233144.528,5
1580233154.528,5
1580233164.528,5
1580233174.528,5
1580233184.528,5
1580233194.528,5
1580233204.528,5
1580233214.528,5
1580233224.528,5
1580233234.528,6
1580233244.528,6
1580233254.528,6
1580233264.528,6
1580233274.528,6
1580233284.528,6
1580233294.528,6
1580233304.528,6
1580233314.528,6
1580233324.528,6
1580233334.528,6
1580233344.528,6
1580233354.528,6
1580233364.528,6
1580233374.528,6
1580233394.528,6
1580233404.528,6
1580233414.528,6
1580233424.528,6
1580233434.528,6
1580233444.528,6
1580233454.528,7
1580233464.528,7
1580233474.528,7
1580233484.528,7
1580233494.528,7
1580233504.528,7
1580233514.528,7
1580233524.528,7
1580233534.528,7
1580233544.528,7
1580233554.528,7
1580233564.528,7
1580233574.528,7
1580233584.528,7
1580233594.528,7
1580233604.528,7
1580233614.528,8
1580233624.528,8
1580233634.528,8
1580233644.528,8
1580233654.528,8
1580233664.528,8
1580233674.528,8
1580233684.528,8
1580233694.528,8
1580233704.528,8
1580233714.528,8
1580233724.528,8
1580233734.528,8
1580233744.528,8
1580233754.528,8
1580233764.528,8
1580233774.528,8
1580233784.528,8
1580233794.528,8
1580233804.528,8
1580233814.528,8
1580233824.528,8
1580233834.528,8
1580233844.530,8
1580233854.528,9
1580233864.528,9
1580233874.528,9
1580233884.528,9
1580233894.528,9
1580233904.528,9
1580233914.528,9
1580233934.528,9
1580233944.528,9
1580233954.528,9
1580233964.528,9
1580233974.528,9
1580233984.528,9
1580233994.528,9
1580234004.528,9
1580234014.528,9
1580234024.528,9
1580234034.528,9
1580234044.528,9
1580234054.528,9
1580234064.528,9
1580234074.528,10
1580234084.528,10
1580234094.528,10
1580234104.528,10
1580234114.528,10
1580234124.528,10
1580234134.528,10
1580234144.528,10
1580234154.528,10
1580234164.528,10
1580234174.528,10
1580234184.530,10
1580234194.528,10
1580234204.528,10
1580234214.528,10
1580234224.528,11
1580234234.528,11
1580234244.528,11
1580234254.528,11
1580234264.528,11
1580234274.528,11
1580234284.528,11
1580234294.528,11
1580234304.528,11
1580234314.528,11
1580234324.532,11
1580234334.528,11
1580234344.528,11
1580234354.530,11
1580234364.528,11
1580234374.528,11
1580234384.528,11
1580234394.528,11
1580234404.528,11
1580234414.528,11
1580234424.528,11
1580234434.528,11
1580234444.528,11
1580234454.528,11
1580234464.528,11
1580234474.528,11
1580234484.528,11
1580234494.528,11
1580234504.528,11
1580234514.528,11
1580234524.528,12
1580234534.528,12
1580234544.528,12
1580234554.528,12
1580234564.528,12
1580234574.528,12
1580234584.528,12
1580234594.528,12
1580234604.528,12
1580234614.528,12
1580234624.528,12
1580234634.528,12
1580234644.528,12
1580234654.528,12
1580234664.528,12
1580234674.528,12
