epoch,value
1580478156.101,41254
1580478166.082,41254
1580478176.084,41254
1580478186.082,41254
1580478196.082,41254
1580478206.082,41254
1580478216.082,41254
1580478226.082,41254
1580478236.085,41254
1580478246.082,41254
1580478256.082,41254
1580478266.082,41254
1580478276.082,41254
1580478286.082,41255
1580478296.082,41255
1580478306.082,41255
1580478316.082,41255
1580478326.082,41255
1580478336.082,41255
1580478346.084,41255
1580478356.083,41255
1580478366.082,41255
1580478376.082,41255
1580478386.082,41255
1580478396.082,41255
1580478406.082,41255
1580478416.082,41255
1580478426.082,41255
1580478436.082,41255
1580478446.082,41255
1580478456.082,41255
1580478466.082,41255
1580478476.082,41255
1580478486.082,41255
1580478496.082,41255
1580478506.082,41255
1580478516.082,41255
1580478526.082,41255
1580478536.082,41255
1580478546.082,41255
1580478556.082,41255
1580478566.082,41255
1580478576.082,41255
1580478586.085,41255
1580478596.082,41255
1580478606.082,41255
1580478616.082,41255
1580478626.082,41255
1580478636.082,41255
1580478646.082,41255
1580478656.083,41255
1580478666.084,41255
1580478676.082,41255
1580478686.082,41255
1580478696.082,41255
1580478706.082,41256
1580478716.082,41256
1580478726.082,41256
1580478736.082,41256
1580478746.082,41256
1580478756.082,41256
1580478766.082,41256
1580478776.082,41256
1580478786.082,41256
1580478796.082,41256
1580478806.082,41256
1580478816.082,41256
1580478826.082,41256
1580478836.082,41256
1580478846.082,41256
1580478856.082,41256
1580478866.083,41256
1580478876.083,41256
1580478886.082,41256
1580478896.082,41256
1580478906.082,41256
1580478916.082,41258
1580478926.082,41258
1580478936.082,41258
1580478946.082,41258
1580478956.082,41258
1580478966.082,41258
1580478976.082,41258
1580478986.082,41258
1580478996.082,41258
1580479006.082,41258
1580479016.084,41258
1580479026.082,41258
1580479036.082,41258
1580479046.082,41258
1580479056.082,41258
1580479066.082,41258
1580479076.082,41258
1580479086.082,41258
1580479096.082,41258
1580479106.082,41258
1580479116.082,41258
1580479126.082,41260
1580479136.082,41260
1580479146.082,41260
1580479156.082,41260
1580479166.082,41260
1580479176.082,41260
1580479186.082,41260
1580479196.082,41260
1580479206.082,41260
1580479216.082,41260
1580479226.082,41260
1580479236.082,41261
1580479246.082,41261
1580479256.082,41261
1580479266.082,41261
1580479276.082,41261
1580479286.084,41261
1580479296.083,41261
1580479306.082,41261
1580479316.084,41261
1580479326.083,41261
1580479336.082,41261
1580479346.082,41261
1580479356.082,41262
1580479366.082,41262
1580479376.082,41262
1580479386.082,41262
1580479396.082,41262
1580479406.082,41262
1580479416.082,41262
1580479426.082,41262
1580479436.082,41262
1580479446.085,41262
1580479456.082,41262
1580479466.082,41262
1580479476.082,41262
1580479486.082,41262
1580479496.082,41262
1580479506.082,41262
1580479516.083,41262
1580479526.082,41262
1580479536.082,41262
1580479546.083,41262
1580479556.082,41262
1580479566.082,41262
1580479576.084,41262
1580479586.082,41262
1580479596.082,41262
1580479606.083,41262
1580479616.082,41262
1580479626.082,41262
1580479636.082,41262
1580479646.082,41262
1580479656.082,41262
1580479666.082,41262
1580479676.082,41262
1580479686.082,41262
1580479696.082,41262
1580479706.082,41263
1580479716.082,41263
