epoch,value
1579883021.653,0
1579883031.653,0
1579883041.653,0
1579883051.653,0
1579883061.653,0
1579883071.653,0
1579883081.653,0
1579883091.653,0
1579883101.653,0
1579883111.653,0
1579883121.653,0
1579883131.653,0
1579883141.653,0
1579883151.653,0
1579883161.653,0
1579883171.653,0
1579883181.653,0
1579883191.653,1
1579883201.653,1
1579883211.653,1
1579883221.653,1
1579883231.653,1
1579883241.653,1
1579883251.653,1
1579883261.653,1
1579883271.653,1
1579883281.653,1
1579883291.653,1
1579883301.653,1
1579883311.653,1
1579883321.653,1
1579883331.653,1
1579883341.653,1
1579883351.653,1
1579883361.653,2
1579883371.653,2
1579883381.653,2
1579883391.653,2
1579883401.653,2
1579883411.653,2
1579883421.653,2
1579883431.653,2
1579883441.653,2
1579883451.653,2
1579883461.653,2
1579883471.653,2
1579883481.653,2
1579883491.653,2
1579883501.653,2
1579883511.653,2
1579883521.653,2
1579883531.653,2
1579883541.653,2
1579883551.653,2
1579883561.653,2
1579883571.653,2
1579883581.653,2
1579883591.653,2
1579883601.653,2
1579883611.653,2
1579883621.653,2
1579883631.653,3
1579883641.653,3
1579883651.653,3
1579883661.653,3
1579883671.653,3
1579883681.653,3
1579883691.653,3
1579883701.653,3
1579883711.653,3
1579883721.653,3
1579883731.653,3
1579883741.653,3
1579883751.653,4
1579883761.653,4
1579883771.653,4
1579883781.653,4
1579883791.653,4
1579883801.653,4
1579883811.653,4
1579883821.653,4
1579883831.653,4
1579883841.653,4
1579883851.653,4
1579883861.653,4
1579883871.653,4
1579883891.653,4
1579883901.653,4
1579883911.653,4
1579883921.653,4
1579883931.653,4
1579883941.653,4
1579883951.653,5
1579883961.653,5
1579883971.653,5
1579883981.653,5
1579883991.653,5
1579884001.653,5
1579884011.653,5
1579884021.653,5
1579884031.653,5
1579884041.653,5
1579884051.653,5
1579884061.653,5
1579884071.653,5
1579884081.653,5
1579884091.653,5
1579884101.653,5
1579884111.653,5
1579884121.653,5
1579884131.653,5
1579884141.653,5
1579884151.653,5
1579884161.653,5
1579884171.653,5
1579884181.653,5
1579884191.653,5
1579884201.653,5
1579884211.654,5
1579884221.653,5
1579884231.653,5
1579884241.653,5
1579884251.653,5
1579884261.653,5
1579884271.653,5
1579884281.658,6
1579884291.653,6
1579884301.653,6
1579884311.653,6
1579884321.653,6
1579884331.653,6
1579884341.653,6
1579884351.653,6
1579884361.653,6
1579884371.653,6
1579884381.653,6
1579884391.653,6
1579884401.653,6
1579884411.653,6
1579884421.653,6
1579884431.653,6
1579884441.653,6
1579884451.653,6
1579884461.653,6
1579884471.653,6
1579884481.653,7
1579884491.653,7
1579884501.653,7
1579884511.653,7
1579884521.653,7
1579884531.653,7
1579884541.653,7
1579884551.653,7
1579884561.653,7
1579884571.653,7
1579884581.653,7
1579884591.653,7
1579884601.653,7
1579884611.653,7
1579884621.653,7
1579884631.653,7
1579884641.653,7
1579884651.653,7
1579884661.653,7
1579884671.653,7
1579884681.653,7
1579884691.653,7
1579884701.653,7
1579884711.653,7
1579884721.653,7
1579884731.653,7
1579884741.653,7
1579884751.653,7
1579884761.656,8
1579884771.653,8
1579884781.653,8
1579884791.653,8
1579884801.653,8
1579884811.653,8
1579884821.653,8
1579884831.653,8
1579884841.653,8
1579884851.653,8
1579884861.653,8
1579884871.653,8
1579884881.653,8
1579884891.653,8
1579884901.653,8
1579884911.653,8
1579884921.653,8
1579884931.653,8
1579884941.653,8
1579884951.653,8
1579884961.653,8
1579884971.653,9
1579884981.653,9
1579884991.653,9
1579885001.653,9
1579885011.653,9
1579885021.653,9
1579885031.653,9
1579885041.653,9
1579885051.653,9
1579885061.653,9
1579885071.654,9
1579885081.653,9
1579885091.653,9
1579885101.653,9
1579885111.653,9
1579885121.653,9
1579885131.653,9
1579885141.653,9
1579885151.653,9
1579885161.653,9
1579885171.653,9
1579885181.653,9
1579885191.653,9
1579885201.653,9
1579885211.653,9
1579885221.653,9
1579885231.653,9
1579885241.653,9
1579885251.653,9
1579885261.653,9
1579885271.653,9
1579885281.653,9
1579885291.653,9
1579885301.653,9
1579885311.653,9
1579885331.653,10
1579885341.653,10
1579885351.653,10
1579885361.653,10
1579885371.653,10
1579885381.653,10
1579885391.653,10
1579885401.653,10
1579885411.653,10
1579885421.653,10
1579885431.653,10
1579885441.653,10
1579885451.653,10
1579885461.653,10
1579885471.653,10
1579885481.653,10
1579885491.653,10
1579885501.653,10
1579885511.657,10
1579885521.653,11
1579885531.653,11
1579885541.653,11
1579885551.653,11
1579885561.653,11
1579885571.653,11
1579885581.653,11
1579885591.653,11
1579885601.653,11
1579885611.653,11
1579885621.653,11
1579885631.653,11
1579885641.653,11
1579885651.653,11
1579885661.653,11
1579885671.653,11
1579885681.653,11
1579885691.653,11
1579885701.653,12
1579885711.653,12
1579885721.653,12
1579885731.653,12
1579885741.653,12
1579885751.653,12
