epoch,value
1580343789.843,40675
1580343799.824,40675
1580343809.824,40675
1580343819.823,40675
1580343829.823,40676
1580343839.823,40676
1580343849.822,40676
1580343859.822,40676
1580343869.823,40676
1580343879.822,40676
1580343889.822,40676
1580343899.822,40676
1580343909.823,40676
1580343919.822,40676
1580343929.822,40676
1580343939.822,40676
1580343949.822,40676
1580343959.823,40676
1580343969.823,40676
1580343979.822,40676
1580343989.822,40676
1580343999.822,40676
1580344009.823,40676
1580344019.825,40676
1580344029.823,40676
1580344039.822,40676
1580344049.823,40676
1580344059.824,40676
1580344069.822,40676
1580344079.822,40676
1580344089.824,40676
1580344099.822,40676
1580344109.823,40676
1580344119.822,40676
1580344129.822,40676
1580344139.822,40676
1580344149.822,40676
1580344159.823,40676
1580344169.822,40676
1580344179.823,40676
1580344189.822,40676
1580344199.822,40676
1580344209.822,40676
1580344219.822,40676
1580344229.822,40676
1580344239.822,40676
1580344249.824,40676
1580344259.822,40676
1580344269.822,40676
1580344279.822,40676
1580344289.822,40676
1580344299.823,40676
1580344309.822,40676
1580344319.822,40676
1580344329.822,40676
1580344339.823,40676
1580344349.824,40676
1580344359.822,40676
1580344369.822,40676
1580344379.822,40676
1580344389.825,40676
1580344399.822,40676
1580344409.822,40676
1580344419.822,40676
1580344429.822,40676
1580344439.823,40676
1580344449.822,40676
1580344459.822,40678
1580344469.822,40678
1580344479.822,40678
1580344489.822,40678
1580344499.823,40678
1580344509.823,40678
1580344519.825,40678
1580344529.822,40678
1580344539.822,40678
1580344549.822,40678
1580344559.822,40678
1580344569.822,40678
1580344579.822,40678
1580344589.822,40678
1580344599.822,40678
1580344609.823,40678
1580344619.822,40678
1580344629.822,40678
1580344639.823,40678
1580344649.822,40678
1580344659.823,40678
1580344669.823,40678
1580344679.822,40678
1580344689.822,40678
1580344699.822,40678
1580344709.823,40678
1580344719.822,40678
1580344729.822,40678
1580344739.822,40678
1580344749.822,40678
1580344759.822,40678
1580344769.822,40678
1580344779.822,40678
1580344789.822,40678
1580344799.824,40678
1580344809.822,40678
1580344819.823,40678
1580344829.825,40678
1580344839.824,40679
1580344849.823,40679
1580344859.822,40679
1580344869.822,40679
1580344879.822,40679
1580344889.823,40679
1580344899.823,40679
1580344909.822,40679
1580344919.824,40679
1580344929.824,40679
1580344939.822,40679
1580344949.825,40679
1580344959.822,40679
1580344969.822,40679
1580344979.822,40679
1580344989.822,40679
1580344999.822,40679
1580345009.823,40679
1580345019.822,40679
1580345029.824,40679
1580345039.827,40679
1580345049.822,40679
1580345059.822,40679
1580345069.824,40679
1580345079.822,40679
1580345089.822,40679
1580345099.822,40680
1580345109.822,40680
1580345119.822,40680
1580345129.822,40680
1580345139.822,40680
1580345149.822,40680
1580345159.822,40680
1580345169.822,40680
1580345179.822,40680
1580345189.823,40680
1580345199.822,40680
1580345209.823,40680
1580345219.824,40680
1580345229.823,40680
1580345239.822,40680
1580345249.823,40680
1580345259.822,40680
1580345269.823,40680
1580345279.823,40680
1580345289.822,40680
1580345299.823,40680
1580345309.822,40680
1580345319.822,40680
1580345329.823,40680
1580345339.822,40680
1580345349.822,40680
1580345359.822,40680
1580345369.822,40680
1580345379.822,40680
1580345389.822,40680
1580345399.823,40680
1580345409.822,40680
1580345419.822,40680
1580345429.823,40680
1580345439.823,40680
1580345449.822,40680
1580345459.822,40680
1580345469.823,40680
1580345479.825,40680
1580345489.822,40680
1580345499.823,40680
1580345509.822,40681
1580345519.823,40681
1580345529.822,40681
1580345539.822,40681
1580345549.822,40681
1580345559.822,40682
1580345569.824,40682
1580345579.822,40682
1580345589.823,40682
1580345599.822,40682
1580345609.822,40682
1580345619.822,40682
1580345629.822,40682
1580345639.823,40682
1580345649.822,40682
1580345659.822,40682
1580345669.822,40682
1580345679.822,40682
1580345689.822,40682
1580345699.822,40682
1580345709.824,40682
1580345719.822,40682
1580345729.822,40682
1580345739.822,40684
1580345749.822,40684
1580345759.822,40684
1580345769.822,40684
1580345779.822,40684
1580345789.827,40684
1580345799.822,40684
1580345809.826,40684
1580345819.823,40684
1580345829.822,40684
1580345839.822,40684
1580345849.823,40684
1580345859.822,40684
1580345869.822,40684
1580345879.822,40684
1580345889.822,40684
1580345899.822,40684
1580345909.823,40686
1580345919.822,40686
1580345929.822,40687
1580345939.822,40687
1580345949.822,40687
1580345959.822,40687
1580345969.822,40688
1580345979.822,40688
1580345989.823,40688
1580345999.822,40690
1580346009.823,40690
1580346019.822,40690
1580346029.822,40690
1580346039.823,40690
1580346049.822,40690
1580346059.822,40690
1580346069.825,40690
1580346079.825,40690
1580346089.825,40690
1580346099.822,40690
1580346109.822,40690
1580346119.822,40690
1580346129.823,40690
1580346139.822,40690
1580346149.822,40691
1580346159.822,40691
1580346169.822,40691
1580346179.823,40691
1580346189.824,40691
1580346199.823,40691
1580346209.822,40691
1580346219.822,40691
1580346229.822,40691
1580346239.822,40691
1580346249.822,40691
1580346259.822,40691
1580346269.825,40692
1580346279.822,40692
1580346289.823,40692
1580346299.824,40692
1580346309.822,40694
1580346319.822,40694
1580346329.822,40694
1580346339.822,40694
1580346349.825,40694
1580346359.822,40694
1580346369.822,40694
1580346379.824,40694
1580346389.822,40694
1580346399.823,40694
1580346409.823,40694
1580346419.822,40694
1580346429.825,40694
1580346439.822,40694
1580346449.822,40694
1580346459.822,40694
1580346469.822,40694
1580346479.822,40694
1580346489.822,40694
1580346499.822,40694
1580346509.824,40694
1580346519.823,40694
1580346529.823,40694
1580346539.822,40694
1580346549.822,40694
1580346559.822,40694
1580346569.822,40694
1580346579.823,40694
1580346589.822,40694
1580346599.823,40694
1580346609.823,40694
1580346619.822,40694
1580346629.826,40694
1580346639.822,40694
1580346649.823,40694
1580346659.822,40694
1580346669.822,40694
1580346679.822,40694
1580346689.822,40694
1580346699.822,40694
1580346709.824,40694
1580346719.822,40694
1580346729.823,40694
1580346739.824,40694
1580346749.822,40694
1580346759.823,40694
1580346769.823,40694
1580346779.822,40695
1580346789.822,40695
1580346799.823,40695
1580346809.822,40695
1580346819.822,40695
1580346829.822,40696
1580346839.824,40696
1580346849.822,40696
1580346859.823,40696
1580346869.822,40696
1580346879.824,40696
1580346889.823,40696
1580346899.822,40696
1580346909.822,40696
1580346919.823,40696
1580346929.822,40696
1580346939.825,40696
1580346949.822,40696
1580346959.822,40696
1580346969.822,40696
1580346979.822,40696
1580346989.824,40696
1580346999.823,40697
1580347009.824,40697
1580347019.822,40697
1580347029.825,40697
1580347039.823,40697
1580347049.824,40697
1580347059.823,40698
1580347069.822,40698
1580347079.822,40698
1580347089.823,40698
1580347099.825,40698
1580347109.823,40698
1580347119.824,40699
1580347129.825,40699
1580347139.823,40699
1580347149.822,40699
1580347159.823,40699
1580347169.822,40699
1580347179.823,40699
1580347189.823,40699
1580347199.823,40699
1580347209.823,40699
1580347219.822,40699
1580347229.822,40700
1580347239.822,40700
1580347249.823,40700
1580347259.822,40700
1580347269.822,40700
1580347279.822,40701
1580347289.822,40701
1580347299.822,40701
1580347309.825,40702
1580347319.822,40703
1580347329.822,40703
1580347339.822,40704
1580347349.822,40704
1580347359.822,40704
1580347369.823,40704
1580347379.822,40705
1580347389.822,40705
1580347399.823,40705
1580347409.822,40706
1580347419.822,40706
1580347429.822,40706
1580347439.822,40706
1580347449.822,40706
1580347459.822,40706
1580347469.822,40707
1580347479.824,40707
1580347489.822,40707
1580347499.822,40707
1580347509.822,40707
1580347519.822,40707
1580347529.823,40707
1580347539.822,40708
1580347549.822,40708
1580347559.824,40708
1580347569.822,40708
1580347579.822,40708
1580347589.823,40708
1580347599.822,40712
1580347609.824,40712
1580347619.823,40713
1580347629.823,40713
1580347639.822,40713
1580347649.825,40713
1580347659.822,40713
1580347669.823,40713
1580347679.822,40713
1580347689.822,40713
1580347699.822,40713
1580347709.822,40713
1580347719.822,40713
1580347729.824,40713
1580347739.822,40713
1580347749.823,40714
1580347759.823,40714
1580347769.823,40714
1580347779.822,40714
1580347789.824,40714
1580347799.823,40714
1580347809.822,40714
1580347819.823,40714
1580347829.822,40714
1580347839.822,40714
1580347849.822,40714
1580347859.822,40714
1580347869.822,40714
1580347879.823,40714
1580347889.823,40714
1580347899.822,40714
1580347909.822,40714
1580347919.822,40714
1580347929.822,40714
1580347939.822,40714
1580347949.822,40714
1580347959.822,40716
1580347969.822,40716
1580347979.826,40716
1580347989.822,40716
1580347999.822,40716
1580348009.822,40716
1580348019.822,40717
1580348029.822,40717
1580348039.823,40717
1580348049.822,40717
1580348059.823,40717
1580348069.822,40717
1580348079.823,40718
1580348089.822,40718
1580348099.822,40718
1580348109.822,40718
1580348119.825,40718
1580348129.823,40718
1580348139.823,40718
1580348149.824,40718
1580348159.822,40718
1580348169.822,40718
1580348179.822,40718
1580348189.822,40718
1580348199.822,40718
1580348209.822,40718
1580348219.823,40718
1580348229.822,40718
1580348239.822,40718
1580348249.825,40718
1580348259.823,40718
1580348269.824,40718
1580348279.822,40718
1580348289.823,40718
1580348299.822,40718
1580348309.822,40718
1580348319.825,40718
1580348329.823,40718
1580348339.823,40718
1580348349.823,40718
1580348359.822,40718
1580348369.823,40718
1580348379.822,40718
1580348389.822,40718
1580348399.823,40718
1580348409.822,40718
1580348419.822,40718
1580348429.823,40719
1580348439.822,40719
1580348449.823,40719
1580348459.822,40719
1580348469.822,40719
1580348479.823,40719
1580348489.822,40719
1580348499.822,40719
1580348509.823,40719
1580348519.823,40719
1580348529.824,40719
1580348539.823,40719
1580348549.823,40719
1580348559.824,40719
1580348569.823,40719
1580348579.822,40719
1580348589.822,40719
1580348599.824,40719
1580348609.822,40719
1580348619.823,40719
1580348629.823,40720
1580348639.822,40721
1580348649.823,40722
1580348659.822,40722
1580348669.822,40722
1580348679.822,40723
1580348689.822,40724
1580348699.824,40724
1580348709.822,40725
1580348719.822,40725
1580348729.822,40725
1580348739.822,40725
1580348749.823,40725
1580348759.822,40726
1580348769.823,40726
1580348779.822,40726
1580348789.822,40726
1580348799.823,40726
1580348809.822,40726
1580348819.822,40726
1580348829.822,40726
1580348839.822,40727
1580348849.822,40727
1580348859.823,40727
1580348869.823,40727
1580348879.822,40727
1580348889.822,40727
1580348899.822,40727
1580348909.823,40727
1580348919.822,40727
1580348929.822,40727
1580348939.825,40727
1580348949.822,40727
1580348959.823,40727
1580348969.822,40728
1580348979.823,40728
1580348989.822,40728
1580348999.822,40728
1580349009.822,40728
1580349019.822,40728
1580349029.822,40728
1580349039.823,40728
1580349049.822,40728
1580349059.822,40728
1580349069.822,40729
1580349079.822,40729
1580349089.822,40730
1580349099.822,40730
1580349109.822,40730
1580349119.822,40730
1580349129.824,40730
1580349139.822,40730
1580349149.823,40730
1580349159.824,40730
1580349169.822,40730
1580349179.822,40730
1580349189.822,40730
1580349199.822,40730
1580349209.822,40730
1580349219.822,40730
1580349229.823,40730
1580349239.823,40732
1580349249.824,40732
1580349259.822,40732
1580349269.822,40732
1580349279.822,40732
1580349289.824,40732
1580349299.822,40732
1580349309.823,40732
1580349319.823,40732
1580349329.822,40732
1580349339.822,40732
1580349349.822,40732
1580349359.823,40732
1580349369.822,40732
1580349379.822,40732
1580349389.825,40732
1580349399.822,40732
1580349409.822,40732
1580349419.823,40733
1580349429.822,40733
1580349439.824,40733
1580349449.822,40733
1580349459.823,40733
1580349469.822,40733
1580349479.824,40733
1580349489.824,40733
1580349499.822,40733
1580349509.822,40733
1580349519.822,40733
1580349529.822,40733
1580349539.822,40733
1580349549.822,40733
1580349559.822,40734
1580349569.822,40734
1580349579.822,40734
1580349589.825,40734
1580349599.822,40734
1580349609.823,40734
1580349619.822,40734
1580349629.822,40734
1580349639.822,40734
1580349649.822,40734
1580349659.823,40734
1580349669.823,40734
1580349679.822,40735
1580349689.822,40735
1580349699.822,40736
1580349709.822,40736
1580349719.822,40736
1580349729.822,40736
1580349739.823,40736
1580349749.822,40736
1580349759.824,40736
1580349769.822,40736
1580349779.822,40736
1580349789.823,40736
1580349799.822,40736
1580349809.822,40737
1580349819.822,40737
1580349829.822,40737
1580349839.825,40737
1580349849.822,40737
1580349859.822,40737
1580349869.823,40737
1580349879.822,40737
1580349889.824,40737
1580349899.822,40737
1580349909.823,40737
1580349919.822,40737
1580349929.825,40737
1580349939.823,40737
1580349949.822,40737
1580349959.822,40737
1580349969.822,40737
1580349979.822,40738
1580349989.822,40738
1580349999.822,40738
1580350009.822,40738
1580350019.822,40738
1580350029.823,40738
1580350039.823,40738
1580350049.822,40738
1580350059.822,40738
1580350069.822,40738
1580350079.822,40738
1580350089.823,40738
1580350099.825,40738
1580350109.825,40738
1580350119.822,40738
1580350129.822,40738
1580350139.822,40739
1580350149.822,40739
1580350159.822,40739
1580350169.823,40739
1580350179.822,40739
1580350189.822,40739
1580350199.822,40739
1580350209.822,40739
1580350219.822,40739
1580350229.825,40739
1580350239.824,40739
1580350249.823,40739
1580350259.824,40739
1580350269.822,40739
1580350279.823,40739
1580350289.822,40740
1580350299.823,40740
1580350309.822,40740
1580350319.822,40740
1580350329.824,40740
1580350339.822,40740
1580350349.823,40740
1580350359.822,40740
1580350369.825,40740
1580350379.823,40740
1580350389.822,40740
1580350399.822,40740
1580350409.822,40740
1580350419.822,40740
1580350429.822,40740
1580350439.822,40740
1580350449.822,40740
1580350459.822,40740
1580350469.822,40741
1580350479.822,40741
1580350489.825,40741
1580350499.822,40741
1580350509.823,40741
1580350519.822,40741
1580350529.825,40741
1580350539.822,40741
1580350549.823,40742
1580350559.823,40743
1580350569.823,40743
1580350579.822,40743
1580350589.823,40743
1580350599.822,40743
1580350609.822,40743
1580350619.823,40743
1580350629.823,40743
1580350639.822,40743
1580350649.822,40743
1580350659.822,40743
1580350669.822,40743
1580350679.822,40744
1580350689.822,40744
1580350699.822,40744
1580350709.822,40744
1580350719.822,40744
1580350729.823,40744
1580350739.822,40744
1580350749.825,40744
1580350759.822,40744
1580350769.823,40744
1580350779.823,40744
1580350789.823,40744
1580350799.823,40744
1580350809.822,40744
1580350819.822,40744
1580350829.822,40744
1580350839.822,40744
1580350849.822,40744
1580350859.822,40744
1580350869.824,40744
1580350879.822,40744
1580350889.822,40744
1580350899.822,40744
1580350909.822,40744
1580350919.823,40745
1580350929.822,40745
1580350939.822,40745
1580350949.823,40745
1580350959.823,40745
1580350969.822,40745
1580350979.826,40745
1580350989.822,40746
1580350999.822,40746
1580351009.822,40746
1580351019.823,40746
1580351029.823,40746
1580351039.822,40746
1580351049.822,40747
1580351059.822,40748
1580351069.822,40748
1580351079.827,40748
1580351089.824,40748
1580351099.825,40748
1580351109.822,40748
1580351119.822,40748
1580351129.823,40748
1580351139.823,40748
1580351149.826,40748
1580351159.822,40748
1580351169.822,40748
1580351179.822,40748
1580351189.822,40748
1580351199.822,40748
1580351209.822,40748
1580351219.824,40748
1580351229.824,40748
1580351239.822,40749
1580351249.822,40749
1580351259.822,40749
1580351269.822,40750
1580351279.822,40750
1580351289.822,40751
1580351299.823,40751
1580351309.822,40751
1580351319.824,40751
1580351329.822,40751
1580351339.824,40751
1580351349.822,40751
