epoch,value
1580483466.859,0
1580483476.859,0
1580483486.859,0
1580483496.859,0
1580483506.864,0
1580483516.859,0
1580483526.859,0
1580483536.859,1
1580483546.859,1
1580483556.859,1
1580483566.859,1
1580483576.859,1
1580483586.864,1
1580483596.859,1
1580483606.859,1
1580483616.859,1
1580483626.859,1
1580483636.859,1
1580483646.859,2
1580483656.859,2
1580483666.859,2
1580483676.859,2
1580483686.859,2
1580483696.859,2
1580483706.859,2
1580483716.859,2
1580483726.864,2
1580483736.859,2
1580483756.859,3
1580483766.859,3
1580483776.859,3
1580483786.859,3
1580483796.859,3
1580483806.859,3
1580483816.859,3
1580483826.864,3
1580483836.859,3
1580483846.859,3
1580483856.859,3
1580483866.859,3
1580483876.859,4
1580483886.859,4
1580483896.859,4
1580483906.859,4
1580483916.859,4
1580483926.859,4
1580483936.859,4
1580483946.859,4
1580483956.859,4
1580483966.859,5
1580483976.859,5
1580483986.859,5
1580483996.859,5
1580484006.859,5
1580484016.859,5
1580484026.859,5
1580484036.859,5
1580484046.859,5
1580484056.859,5
1580484066.859,5
1580484076.859,5
1580484086.859,5
1580484096.859,6
1580484106.859,6
1580484116.859,6
1580484126.859,6
1580484136.859,6
1580484146.859,6
1580484156.859,6
1580484166.859,6
1580484176.860,6
1580484186.859,6
1580484196.859,6
1580484206.859,7
1580484216.859,7
1580484226.859,7
1580484236.859,7
1580484246.861,7
1580484256.859,7
1580484266.859,7
1580484276.859,7
1580484286.859,7
1580484296.859,7
1580484306.859,7
1580484316.859,7
1580484326.859,8
1580484336.859,8
1580484346.859,8
1580484356.859,8
1580484366.859,8
1580484376.859,8
1580484386.859,8
1580484396.859,8
1580484406.859,8
1580484416.864,8
1580484426.859,8
1580484436.859,8
1580484446.859,8
1580484456.859,8
1580484466.859,8
1580484476.859,9
1580484486.859,9
1580484496.859,9
1580484506.859,9
1580484516.860,9
1580484526.859,9
1580484536.859,9
1580484546.859,9
1580484556.859,9
1580484566.859,9
1580484576.859,9
1580484586.859,9
1580484596.859,9
1580484606.859,9
1580484616.865,9
1580484626.859,10
1580484636.859,10
1580484646.859,10
1580484656.859,10
1580484666.859,10
1580484676.859,10
1580484686.864,10
1580484696.859,10
1580484706.864,10
1580484716.859,10
1580484726.859,10
1580484736.859,10
1580484746.859,10
1580484756.859,10
1580484766.859,10
1580484776.859,11
1580484786.859,11
1580484796.859,11
1580484806.859,11
1580484816.859,11
1580484826.859,11
1580484836.859,11
1580484846.859,11
1580484856.859,11
1580484866.859,11
1580484876.859,11
1580484886.859,11
1580484896.864,12
1580484906.859,12
1580484916.861,12
1580484926.864,12
1580484936.859,12
1580484946.859,12
1580484956.859,12
1580484966.859,12
1580484976.859,12
1580484986.859,13
1580484996.859,13
