epoch,value
1580469352.946,0
1580469362.949,0
1580469372.946,0
1580469382.946,0
1580469392.946,0
1580469402.946,0
1580469412.946,0
1580469422.946,0
1580469432.946,0
1580469442.946,0
1580469452.950,0
1580469462.946,0
1580469472.946,0
1580469482.946,0
1580469492.946,0
1580469502.946,0
1580469512.946,0
1580469522.946,0
1580469532.950,1
1580469542.946,1
1580469552.946,1
1580469562.946,1
1580469572.953,1
1580469582.946,1
1580469592.946,1
1580469602.946,1
1580469612.946,1
1580469622.946,1
1580469632.946,1
1580469642.946,1
1580469652.946,2
1580469662.946,2
1580469672.946,2
1580469682.946,2
1580469692.946,2
1580469702.946,2
1580469712.946,2
1580469722.946,2
1580469732.946,2
1580469742.946,2
1580469752.946,2
1580469762.946,2
1580469772.946,2
1580469782.946,2
1580469792.946,2
1580469802.946,2
1580469812.946,2
1580469822.946,3
1580469832.946,3
1580469842.946,3
1580469852.946,3
1580469862.946,3
1580469872.946,3
1580469882.946,4
1580469892.946,4
1580469902.946,4
1580469912.947,4
1580469922.946,4
1580469932.946,4
1580469942.946,4
1580469952.946,4
1580469962.946,4
1580469972.946,4
1580469982.948,4
1580469992.946,4
1580470002.946,4
1580470012.946,5
1580470022.946,5
1580470032.946,5
1580470042.946,5
1580470052.946,5
1580470062.946,5
1580470072.946,5
1580470082.946,5
1580470092.946,5
1580470102.946,5
1580470112.946,5
1580470122.946,5
1580470132.950,5
1580470142.946,5
1580470152.946,5
1580470162.946,6
1580470172.946,6
1580470182.946,6
1580470192.946,6
1580470202.946,6
1580470212.949,6
1580470222.946,6
1580470232.946,6
1580470242.946,6
1580470252.946,6
1580470262.946,6
1580470272.946,6
1580470282.946,6
1580470292.946,6
1580470312.946,7
1580470322.946,7
1580470332.946,7
1580470342.946,7
1580470352.946,7
1580470362.946,7
1580470372.946,7
1580470382.946,7
1580470392.946,7
1580470402.946,8
1580470412.946,8
1580470422.946,8
1580470432.946,8
1580470442.946,8
1580470452.946,8
1580470462.946,8
1580470472.946,8
1580470482.946,8
1580470492.946,9
1580470502.946,9
1580470512.946,9
1580470522.946,9
1580470532.946,9
1580470542.946,9
1580470552.946,9
1580470562.946,9
1580470572.946,9
1580470582.946,9
1580470592.946,9
1580470602.946,9
1580470612.946,9
1580470622.946,9
1580470632.946,9
1580470642.946,10
1580470652.946,10
1580470662.946,10
1580470672.946,10
1580470682.947,10
1580470692.946,10
1580470702.946,10
1580470712.946,10
1580470722.950,10
1580470732.946,10
1580470742.950,10
1580470752.946,10
1580470762.946,11
1580470772.946,11
1580470782.946,11
1580470792.946,11
1580470802.950,11
1580470812.946,11
1580470822.946,11
1580470832.946,11
1580470842.946,11
1580470852.946,11
1580470862.946,11
1580470872.946,11
1580470882.946,12
