epoch,value
1579806836.574,0
1579806846.574,0
1579806856.574,0
1579806866.574,0
1579806876.574,1
1579806886.574,2
1579806896.574,2
1579806906.574,9
1579806916.574,10
1579806926.574,14
1579806936.574,20
1579806946.574,22
1579806956.574,32
1579806966.574,54
1579806976.574,55
1579806986.574,58
1579806996.574,62
1579807006.574,62
1579807016.574,64
1579807026.574,67
1579807036.574,70
1579807046.574,85
1579807056.574,96
1579807066.574,107
1579807076.574,119
1579807086.574,119
1579807096.574,139
1579807106.574,142
1579807116.574,143
1579807126.574,146
1579807136.574,149
1579807146.574,154
1579807156.574,157
1579807166.574,157
1579807176.574,157
1579807186.574,157
1579807196.574,157
1579807206.574,157
1579807216.579,157
1579807226.574,157
1579807236.574,157
1579807246.574,157
1579807256.578,157
1579807266.574,157
1579807276.574,157
1579807286.574,157
1579807296.574,157
1579807306.574,157
1579807316.574,157
1579807326.574,157
1579807336.574,158
1579807346.574,158
1579807356.574,158
1579807366.574,158
1579807376.574,158
1579807386.574,158
1579807396.574,158
1579807406.574,158
1579807416.574,158
1579807426.574,158
1579807436.574,158
1579807446.574,158
1579807456.574,158
1579807466.574,158
1579807476.574,158
1579807486.576,158
1579807496.574,158
1579807506.574,159
1579807516.574,159
1579807526.574,159
1579807536.574,159
1579807546.574,159
1579807556.574,159
1579807566.574,159
1579807576.574,159
1579807586.574,160
1579807596.574,160
1579807606.574,160
1579807616.574,160
1579807626.574,160
1579807636.574,160
1579807646.574,160
1579807656.574,160
1579807666.574,160
1579807676.574,160
1579807686.574,160
1579807696.574,160
1579807706.574,160
1579807716.574,160
1579807726.574,160
1579807736.574,160
1579807746.574,161
1579807756.574,161
1579807766.574,161
1579807786.574,161
1579807796.574,161
1579807806.574,161
1579807816.574,161
1579807826.574,161
1579807836.574,161
1579807846.574,161
1579807856.574,161
1579807866.574,161
1579807876.574,161
1579807886.574,161
1579807896.574,161
1579807906.574,161
1579807916.574,161
1579807926.574,161
1579807936.574,161
1579807946.574,162
1579807956.574,162
1579807966.574,162
1579807976.574,162
1579807986.574,162
1579807996.574,162
1579808006.574,162
1579808016.574,162
1579808026.574,162
1579808036.574,162
1579808046.574,162
1579808056.574,162
1579808066.574,163
1579808076.574,163
1579808086.574,163
1579808096.574,163
1579808106.574,163
1579808116.579,163
1579808126.574,163
1579808136.574,163
1579808146.574,163
1579808156.574,163
1579808166.574,163
1579808176.574,163
1579808186.574,163
1579808196.574,163
1579808206.574,163
1579808216.574,163
1579808226.574,163
1579808236.574,164
1579808246.574,164
1579808256.574,164
1579808266.574,164
1579808276.574,164
1579808286.579,164
1579808296.574,164
1579808306.574,164
1579808316.574,164
1579808326.574,164
1579808336.574,164
1579808346.574,164
1579808356.574,164
1579808366.574,165
