epoch,value
1580472801.115,55119
1580472811.099,55119
1580472821.098,55119
1580472831.099,55119
1580472841.099,55119
1580472851.100,55119
1580472861.098,55119
1580472871.098,55119
1580472881.098,55119
1580472891.099,55119
1580472901.098,55119
1580472911.098,55119
1580472921.098,55119
1580472931.098,55119
1580472941.099,55120
1580472951.099,55120
1580472961.099,55122
1580472971.098,55122
1580472981.102,55122
1580472991.098,55122
1580473001.098,55122
1580473011.100,55122
1580473021.098,55122
1580473031.098,55122
1580473041.098,55122
1580473051.098,55122
1580473061.098,55122
1580473071.098,55122
1580473081.098,55122
1580473091.098,55122
1580473101.098,55122
1580473111.098,55122
1580473121.099,55122
1580473131.099,55122
1580473141.100,55122
1580473151.098,55122
1580473161.101,55122
1580473171.098,55122
1580473181.101,55122
1580473191.098,55122
1580473201.098,55122
1580473211.098,55122
1580473221.098,55122
1580473231.099,55122
1580473241.098,55122
1580473251.098,55122
1580473261.099,55122
1580473271.098,55122
1580473281.098,55122
1580473291.098,55122
1580473301.098,55122
1580473311.100,55122
1580473321.099,55122
1580473331.098,55122
1580473341.098,55122
1580473351.098,55124
1580473361.098,55124
1580473371.099,55124
1580473381.098,55124
1580473391.099,55124
1580473401.098,55124
1580473411.098,55124
1580473421.098,55124
1580473431.099,55124
1580473441.098,55124
1580473451.098,55124
1580473461.099,55126
1580473471.099,55126
1580473481.099,55126
1580473491.098,55126
1580473501.098,55126
1580473511.098,55128
1580473521.098,55129
1580473531.098,55129
1580473541.099,55129
1580473551.099,55129
1580473561.098,55129
1580473571.099,55130
1580473581.098,55130
1580473591.098,55130
1580473601.098,55130
1580473611.098,55130
1580473621.098,55132
1580473631.098,55132
1580473641.098,55132
1580473651.098,55132
1580473661.099,55134
1580473671.098,55135
1580473681.098,55136
1580473691.098,55138
1580473701.098,55138
1580473711.099,55138
1580473721.098,55138
1580473731.098,55138
1580473741.098,55138
1580473751.098,55138
1580473761.101,55138
1580473771.098,55138
1580473781.099,55138
1580473791.098,55138
1580473801.101,55138
1580473811.098,55138
1580473821.098,55140
1580473831.099,55140
1580473841.099,55140
1580473851.098,55140
1580473861.098,55140
1580473871.098,55141
1580473881.098,55141
1580473891.100,55141
1580473901.099,55142
1580473911.098,55143
1580473921.098,55143
1580473931.099,55144
1580473941.098,55144
1580473951.098,55144
1580473961.100,55144
1580473971.098,55144
1580473981.098,55144
1580473991.098,55144
1580474001.100,55144
1580474011.098,55144
1580474021.098,55144
1580474031.098,55144
1580474041.099,55144
1580474051.098,55144
1580474061.098,55144
1580474071.098,55144
1580474081.098,55144
1580474091.099,55144
1580474101.098,55144
1580474111.098,55144
1580474121.098,55144
1580474131.098,55144
1580474141.098,55144
1580474151.098,55144
1580474161.098,55144
1580474171.101,55144
1580474181.098,55144
1580474191.098,55144
1580474201.098,55144
1580474211.098,55144
1580474221.098,55145
1580474231.100,55145
1580474241.098,55145
1580474251.098,55145
1580474261.098,55145
1580474271.098,55145
1580474281.098,55145
1580474291.102,55145
1580474301.098,55145
1580474311.099,55145
1580474321.098,55145
1580474331.098,55145
1580474341.099,55145
1580474351.098,55145
1580474361.098,55145
