epoch,value
1579812441.598,243584
1579812451.575,243584
1579812461.575,243584
1579812471.576,243584
1579812481.575,243586
1579812491.576,243586
1579812501.576,243595
1579812511.575,243630
1579812521.575,243659
1579812531.575,243698
1579812541.575,243728
1579812551.575,243785
1579812561.575,243827
1579812571.575,243860
1579812581.575,243908
1579812591.575,243941
1579812601.575,243980
1579812611.576,244015
1579812621.576,244048
1579812631.575,244074
1579812641.575,244113
1579812651.575,244145
1579812661.575,244177
1579812671.575,244213
1579812681.575,244252
1579812691.575,244285
1579812701.575,244322
1579812711.578,244372
1579812721.575,244415
1579812731.575,244454
1579812741.575,244493
1579812751.575,244536
1579812761.575,244579
1579812771.575,244624
1579812781.575,244671
1579812791.575,244708
1579812801.576,244738
1579812811.575,244781
1579812821.575,244815
1579812831.575,244859
1579812841.576,244907
1579812851.575,244950
1579812861.575,244992
1579812871.575,245038
1579812881.575,245080
1579812891.577,245136
1579812901.575,245186
1579812911.575,245222
1579812921.575,245223
1579812931.575,245223
1579812941.575,245225
1579812951.575,245225
1579812961.575,245226
1579812971.575,245226
1579812981.577,245226
1579812991.577,245227
1579813001.575,245228
1579813011.576,245228
1579813021.579,245229
1579813031.575,245230
1579813041.575,245231
1579813051.575,245231
1579813061.575,245232
1579813071.575,245232
1579813081.575,245234
1579813091.576,245234
1579813101.577,245234
1579813111.578,245234
1579813121.575,245234
1579813131.576,245234
1579813141.575,245235
1579813151.575,245236
1579813161.574,245238
1579813171.574,245238
1579813181.575,245238
1579813191.575,245238
1579813201.575,245238
1579813211.575,245238
1579813221.575,245238
1579813231.575,245238
1579813241.575,245238
1579813251.575,245239
1579813261.575,245240
1579813271.575,245240
1579813281.575,245240
1579813291.575,245241
1579813301.575,245241
1579813311.575,245241
1579813321.575,245241
1579813331.575,245241
1579813341.575,245242
1579813351.574,245242
1579813361.574,245242
1579813371.575,245242
1579813381.576,245242
1579813391.575,245243
1579813401.575,245247
1579813411.575,245248
1579813421.575,245250
1579813431.576,245250
1579813441.575,245250
1579813451.575,245250
1579813461.575,245252
1579813471.575,245252
1579813481.575,245252
1579813491.575,245253
1579813501.574,245253
1579813511.575,245254
1579813521.575,245254
1579813531.575,245255
1579813541.575,245255
1579813551.575,245255
1579813561.576,245255
1579813571.577,245255
1579813581.575,245257
1579813591.575,245257
1579813601.575,245257
1579813611.575,245258
1579813621.575,245258
1579813631.576,245259
1579813641.575,245259
1579813651.575,245260
1579813661.575,245260
1579813671.575,245260
1579813681.575,245260
1579813691.575,245260
1579813701.575,245262
1579813711.575,245262
1579813721.575,245263
1579813731.575,245263
1579813741.575,245263
1579813751.576,245264
1579813761.575,245266
1579813771.575,245266
1579813781.575,245266
1579813791.576,245266
1579813801.575,245267
1579813811.575,245267
1579813821.576,245270
1579813831.575,245270
1579813841.575,245270
1579813851.575,245271
1579813861.575,245271
1579813871.575,245271
1579813881.575,245272
1579813891.575,245273
1579813901.575,245273
1579813911.575,245273
1579813921.575,245273
1579813931.575,245276
1579813941.575,245276
1579813951.576,245278
1579813961.575,245278
1579813971.574,245278
1579813981.575,245278
1579813991.575,245278
1579814001.576,245278
