epoch,value
1579803231.307,0
1579803241.307,0
1579803251.307,0
1579803261.307,2
1579803271.307,9
1579803281.307,15
1579803291.307,35
1579803301.307,39
1579803311.307,44
1579803321.308,49
1579803331.307,51
1579803341.307,53
1579803351.307,60
1579803361.307,65
1579803371.307,68
1579803381.307,71
1579803391.307,77
1579803401.307,81
1579803411.307,84
1579803421.307,99
1579803431.307,101
1579803441.307,103
1579803451.307,105
1579803461.307,107
1579803471.307,126
1579803481.307,128
1579803491.312,134
1579803501.307,141
1579803511.307,155
1579803521.307,157
1579803531.307,159
1579803541.307,162
1579803551.307,165
1579803561.307,167
1579803571.307,167
1579803581.307,167
1579803591.307,167
1579803601.307,167
1579803611.307,167
1579803621.307,167
1579803631.307,167
1579803641.307,167
1579803651.307,167
1579803661.307,167
1579803671.313,167
1579803681.307,167
1579803691.307,167
1579803701.307,168
1579803711.307,168
1579803721.307,168
1579803731.307,168
1579803741.307,168
1579803751.307,168
1579803761.307,168
1579803771.307,168
1579803781.307,168
1579803791.307,168
1579803801.307,168
1579803811.307,168
1579803821.307,168
1579803831.307,168
1579803841.307,168
1579803851.307,168
1579803861.307,168
1579803871.307,168
1579803881.307,168
1579803891.307,169
1579803901.307,169
1579803911.307,169
1579803921.307,169
1579803931.307,169
1579803941.307,169
1579803951.307,169
1579803961.307,169
1579803971.307,169
1579803981.307,169
1579803991.307,169
1579804001.307,169
1579804011.307,169
1579804021.307,169
1579804031.307,169
1579804041.307,170
1579804051.307,170
1579804061.307,170
1579804071.307,170
1579804081.307,170
1579804091.307,170
1579804101.307,170
1579804111.307,170
1579804121.307,170
1579804131.307,170
1579804141.307,170
1579804151.307,170
1579804161.307,170
1579804171.307,170
1579804181.310,170
1579804191.307,170
1579804201.307,171
1579804211.307,171
1579804221.307,171
1579804231.307,171
1579804241.307,171
1579804251.307,171
1579804261.307,171
1579804271.307,171
1579804281.307,171
1579804291.307,171
1579804301.307,171
1579804311.307,171
1579804321.308,172
1579804331.307,172
1579804341.307,172
1579804351.307,172
1579804361.307,172
1579804371.307,172
1579804381.307,173
1579804391.307,173
1579804401.307,173
1579804411.307,173
1579804421.309,173
1579804431.307,173
1579804441.307,173
1579804451.307,174
1579804461.307,174
1579804471.307,174
1579804481.307,174
1579804491.307,174
1579804501.307,174
1579804511.307,174
1579804521.307,174
1579804531.307,175
1579804541.307,175
1579804551.307,175
1579804561.307,175
1579804571.307,175
1579804581.307,175
1579804591.307,175
1579804601.307,175
1579804611.307,175
1579804621.307,175
1579804631.307,176
1579804641.307,176
1579804651.307,176
1579804661.307,176
1579804671.307,176
1579804681.307,176
1579804691.307,176
1579804701.307,176
1579804711.307,176
1579804721.307,176
1579804731.307,176
1579804741.307,176
1579804751.307,177
1579804761.307,177
