epoch,value
1580478185.806,0
1580478195.806,0
1580478205.806,0
1580478215.806,0
1580478225.806,0
1580478235.806,0
1580478245.806,0
1580478255.806,0
1580478265.806,0
1580478275.806,0
1580478285.806,0
1580478295.806,0
1580478305.806,0
1580478315.806,0
1580478325.806,0
1580478335.806,0
1580478345.806,0
1580478355.806,0
1580478365.806,0
1580478375.810,1
1580478385.806,1
1580478395.806,1
1580478405.806,1
1580478415.806,1
1580478425.806,1
1580478435.806,1
1580478445.806,1
1580478455.806,1
1580478465.806,1
1580478475.806,1
1580478485.806,1
1580478495.806,1
1580478505.806,1
1580478515.806,1
1580478525.806,1
1580478535.806,1
1580478545.806,1
1580478555.806,1
1580478565.806,1
1580478575.806,1
1580478585.806,2
1580478595.806,2
1580478605.806,2
1580478615.806,2
1580478625.806,2
1580478635.806,2
1580478645.806,2
1580478655.806,2
1580478665.806,2
1580478675.806,2
1580478685.806,3
1580478695.806,3
1580478705.806,3
1580478715.806,3
1580478725.806,3
1580478735.810,3
1580478745.806,3
1580478755.806,3
1580478765.806,3
1580478775.806,3
1580478785.806,3
1580478795.806,3
1580478805.806,3
1580478815.806,3
1580478825.806,3
1580478835.806,3
1580478845.806,4
1580478855.806,4
1580478865.806,4
1580478875.806,4
1580478885.806,4
1580478895.806,4
1580478905.806,4
1580478915.806,4
1580478925.806,4
1580478935.806,4
1580478945.806,4
1580478955.806,4
1580478965.806,4
1580478975.806,4
1580478985.806,4
1580478995.806,4
1580479005.810,5
1580479015.806,5
1580479025.806,5
1580479035.808,5
1580479045.806,5
1580479055.806,5
1580479065.806,5
1580479075.806,5
1580479085.806,5
1580479095.806,5
1580479105.806,5
1580479115.806,5
1580479125.806,5
1580479135.806,5
1580479145.806,5
1580479155.806,5
1580479165.806,5
1580479175.806,5
1580479185.806,5
1580479195.810,5
1580479205.806,5
1580479215.806,5
1580479225.806,6
1580479235.806,6
1580479245.806,6
1580479255.806,6
1580479265.806,6
1580479275.806,6
1580479285.806,6
1580479295.806,6
1580479305.806,6
1580479315.806,6
1580479325.806,6
1580479335.806,6
1580479345.806,6
1580479355.806,6
1580479365.806,7
1580479375.806,7
1580479385.806,7
1580479395.806,7
1580479405.806,7
1580479415.806,7
1580479425.806,7
1580479435.806,7
1580479445.806,7
1580479455.806,7
1580479465.806,7
1580479475.806,7
1580479485.806,7
1580479495.806,7
1580479505.806,7
1580479515.806,7
1580479525.806,7
1580479535.806,7
1580479545.806,7
1580479555.806,7
1580479565.806,8
1580479575.806,8
1580479585.806,8
1580479595.806,8
1580479605.806,8
1580479615.810,8
1580479625.806,8
1580479635.806,8
1580479645.806,8
1580479655.806,8
1580479665.806,8
1580479675.806,8
1580479685.806,8
1580479695.806,8
1580479705.806,8
1580479715.806,9
