epoch,value
1580552486.238,415971
1580552496.222,415971
1580552506.222,415971
1580552516.224,415971
1580552526.222,415971
1580552536.221,415972
1580552546.222,415972
1580552556.222,415972
1580552566.221,415973
1580552576.221,415974
1580552586.221,415974
1580552596.221,415975
1580552606.221,415977
1580552616.223,415977
1580552626.222,415977
1580552636.222,415978
1580552646.222,415979
1580552656.222,415979
1580552666.222,415980
1580552676.222,415980
1580552686.221,415981
1580552696.222,415981
1580552706.222,415982
1580552716.221,415982
1580552726.222,415982
1580552736.221,415982
1580552746.222,415982
1580552756.221,415984
1580552766.223,415984
1580552776.223,415985
1580552786.221,415985
1580552796.221,415987
1580552806.221,415988
1580552816.221,415988
1580552826.221,415990
1580552836.221,415990
1580552846.221,415990
1580552856.222,415990
1580552866.221,415990
1580552876.221,415990
1580552886.221,415990
1580552896.223,415990
1580552906.223,415990
1580552916.224,415991
1580552926.221,415991
1580552936.221,415992
1580552946.222,415992
1580552956.221,415993
1580552966.222,415994
1580552976.221,415995
1580552986.222,415996
1580552996.228,415997
1580553006.222,415997
1580553016.221,415999
1580553026.222,415999
1580553036.221,416000
1580553046.221,416002
1580553056.225,416002
1580553066.222,416002
1580553076.222,416002
1580553086.221,416002
1580553096.222,416002
1580553106.222,416002
1580553116.221,416003
1580553126.221,416004
1580553136.222,416004
1580553146.221,416005
1580553156.222,416006
1580553166.221,416007
1580553176.221,416007
1580553186.221,416007
1580553196.222,416008
1580553206.221,416008
1580553216.221,416009
1580553226.221,416009
1580553236.221,416010
1580553246.221,416010
1580553256.221,416013
1580553266.222,416013
1580553276.221,416013
1580553286.221,416013
1580553296.222,416014
1580553306.222,416014
1580553316.223,416015
1580553326.221,416015
1580553336.221,416015
1580553346.222,416016
1580553356.222,416016
1580553366.221,416017
1580553376.221,416018
1580553386.223,416018
1580553396.225,416019
1580553406.222,416019
1580553416.222,416019
1580553426.222,416019
1580553436.222,416020
1580553446.221,416021
1580553456.221,416022
1580553466.221,416023
1580553476.221,416023
1580553486.223,416023
1580553496.222,416023
1580553506.222,416023
1580553516.222,416024
1580553526.221,416024
1580553536.223,416025
1580553546.223,416025
1580553556.224,416026
1580553566.224,416026
1580553576.221,416027
1580553586.221,416027
1580553596.221,416028
1580553606.222,416028
1580553616.223,416028
1580553626.221,416028
1580553636.221,416028
1580553646.221,416029
1580553656.223,416030
1580553666.222,416030
1580553676.221,416032
1580553686.221,416032
1580553696.221,416033
1580553706.222,416034
1580553716.222,416034
1580553726.222,416034
1580553736.224,416034
1580553746.222,416034
1580553756.222,416034
1580553766.222,416036
1580553776.221,416036
1580553786.221,416037
1580553796.222,416038
1580553806.221,416038
1580553816.221,416038
1580553826.223,416039
1580553836.223,416040
1580553846.224,416040
1580553856.222,416043
1580553866.222,416044
1580553876.221,416044
1580553886.223,416045
1580553896.221,416046
1580553906.221,416046
1580553916.222,416048
1580553926.222,416049
1580553936.221,416049
1580553946.221,416052
1580553956.222,416053
1580553966.223,416053
1580553976.222,416054
1580553986.222,416054
1580553996.222,416054
1580554006.222,416056
1580554016.222,416057
1580554026.222,416057
1580554036.223,416060
1580554046.224,416062
1580554056.222,416063
1580554066.221,416064
1580554076.225,416064
1580554086.222,416066
1580554096.221,416066
1580554106.226,416068
1580554116.221,416068
1580554126.224,416068
1580554136.223,416070
1580554146.221,416070
1580554156.221,416071
1580554166.222,416072
1580554176.222,416072
1580554186.222,416072
1580554196.221,416074
1580554206.222,416074
1580554216.221,416076
1580554226.224,416076
1580554236.221,416077
1580554246.221,416078
1580554256.221,416078
1580554266.221,416080
1580554276.223,416081
1580554286.222,416082
1580554296.221,416082
1580554306.222,416082
1580554316.223,416082
1580554326.222,416082
1580554336.221,416082
1580554346.221,416083
1580554356.222,416084
1580554366.221,416085
1580554376.222,416086
1580554386.222,416086
1580554396.222,416086
1580554406.222,416086
1580554416.222,416087
1580554426.221,416088
1580554436.224,416088
1580554446.222,416088
1580554456.222,416088
1580554466.222,416088
1580554476.222,416088
1580554486.222,416088
1580554496.221,416089
1580554506.221,416089
1580554516.222,416090
1580554526.222,416090
1580554536.222,416090
1580554546.221,416092
1580554556.221,416093
1580554566.222,416094
1580554576.222,416094
1580554586.222,416094
1580554596.221,416094
1580554606.222,416095
1580554616.223,416097
1580554626.222,416097
1580554636.222,416098
1580554646.222,416098
1580554656.221,416099
1580554666.222,416100
1580554676.221,416100
1580554686.222,416101
1580554696.222,416101
1580554706.221,416103
1580554716.221,416104
1580554726.222,416106
1580554736.222,416106
1580554746.221,416106
1580554756.223,416107
1580554766.221,416108
1580554776.221,416109
1580554786.221,416109
1580554796.221,416110
1580554806.222,416110
1580554816.222,416112
1580554826.222,416112
1580554836.221,416114
1580554846.222,416116
1580554856.221,416116
1580554866.222,416116
1580554876.221,416118
1580554886.222,416120
1580554896.221,416121
1580554906.225,416121
1580554916.221,416121
1580554926.222,416122
1580554936.222,416123
1580554946.221,416123
1580554956.221,416123
1580554966.221,416123
1580554976.223,416124
1580554986.223,416124
1580554996.223,416124
1580555006.221,416124
1580555016.221,416124
1580555026.221,416124
1580555036.221,416125
1580555046.223,416125
1580555056.223,416126
1580555066.221,416127
1580555076.221,416128
1580555086.222,416128
1580555096.221,416128
1580555106.222,416130
1580555116.221,416130
1580555126.223,416131
1580555136.222,416131
1580555146.224,416131
1580555156.221,416132
1580555166.222,416132
1580555176.221,416132
1580555186.222,416132
1580555196.222,416133
1580555206.221,416134
1580555216.222,416134
1580555226.224,416135
1580555236.223,416135
1580555246.223,416135
1580555256.222,416136
1580555266.222,416136
1580555276.222,416136
1580555286.225,416137
1580555296.222,416137
1580555306.222,416138
1580555316.222,416138
1580555326.223,416138
1580555336.221,416140
1580555346.222,416140
1580555356.222,416142
1580555366.221,416142
1580555376.222,416144
1580555386.221,416144
1580555396.223,416144
1580555406.221,416144
1580555416.222,416144
1580555426.222,416144
1580555436.223,416144
1580555446.222,416146
1580555456.221,416146
1580555466.224,416146
1580555476.222,416148
1580555486.222,416148
1580555496.221,416148
1580555506.223,416149
1580555516.221,416149
1580555526.221,416149
1580555536.222,416150
1580555546.223,416151
1580555556.222,416153
1580555566.224,416153
1580555576.222,416154
1580555586.222,416154
1580555596.223,416156
1580555606.222,416156
1580555616.222,416156
1580555626.222,416157
1580555636.221,416157
1580555646.221,416157
1580555656.222,416157
1580555666.221,416159
1580555676.221,416159
1580555686.222,416160
1580555696.222,416162
1580555706.221,416162
1580555716.222,416163
1580555726.221,416164
1580555736.222,416165
1580555746.222,416165
1580555756.222,416165
1580555766.222,416165
1580555776.221,416166
1580555786.221,416167
1580555796.221,416167
1580555806.223,416167
1580555816.221,416167
1580555826.221,416167
1580555836.221,416167
1580555846.222,416167
1580555856.222,416167
1580555866.221,416169
1580555876.222,416171
1580555886.222,416171
1580555896.222,416172
1580555906.222,416172
1580555916.222,416173
1580555926.223,416173
1580555936.222,416173
1580555946.222,416173
1580555956.222,416173
1580555966.223,416174
1580555976.221,416175
1580555986.221,416175
1580555996.222,416175
1580556006.222,416175
1580556016.221,416176
1580556026.221,416177
1580556036.225,416177
1580556046.221,416178
1580556056.221,416179
1580556066.222,416179
1580556076.221,416181
1580556086.223,416183
1580556096.223,416185
1580556106.221,416186
1580556116.222,416186
1580556126.222,416186
1580556136.223,416188
1580556146.222,416189
1580556156.221,416189
1580556166.223,416190
1580556176.222,416190
1580556186.221,416191
1580556196.222,416193
1580556206.221,416197
1580556216.221,416199
1580556226.221,416199
1580556236.221,416200
1580556246.222,416200
1580556256.221,416200
1580556266.221,416201
1580556276.222,416202
1580556286.221,416202
1580556296.222,416203
1580556306.221,416203
1580556316.223,416204
1580556326.222,416205
1580556336.222,416207
1580556346.221,416208
1580556356.221,416208
1580556366.221,416209
1580556376.222,416210
1580556386.222,416211
1580556396.222,416211
1580556406.221,416212
1580556416.221,416212
1580556426.221,416213
1580556436.222,416215
1580556446.221,416215
1580556456.221,416215
1580556466.221,416216
1580556476.222,416216
1580556486.222,416216
1580556496.221,416216
1580556506.221,416216
1580556516.221,416216
1580556526.222,416218
1580556536.221,416219
1580556546.221,416220
1580556556.221,416220
1580556566.223,416220
1580556576.221,416222
1580556586.222,416223
1580556596.222,416223
1580556606.223,416223
1580556616.222,416224
1580556626.222,416225
1580556636.222,416225
1580556646.222,416226
1580556656.222,416227
1580556666.223,416227
1580556676.221,416228
1580556686.221,416229
1580556696.222,416229
1580556706.221,416230
1580556716.222,416230
1580556726.221,416230
1580556736.222,416231
1580556746.222,416231
1580556756.221,416232
1580556766.224,416232
1580556776.222,416233
1580556786.223,416233
1580556796.221,416234
1580556806.222,416236
1580556816.221,416237
1580556826.221,416238
1580556836.221,416238
1580556846.224,416239
1580556856.221,416242
1580556866.223,416242
1580556876.222,416242
1580556886.222,416242
1580556896.222,416242
1580556906.222,416246
1580556916.221,416246
1580556926.221,416246
1580556936.221,416247
1580556946.221,416248
1580556956.222,416249
1580556966.222,416250
1580556976.222,416251
1580556986.221,416252
1580556996.222,416254
1580557006.221,416255
1580557016.222,416256
1580557026.224,416256
1580557036.222,416257
1580557046.221,416258
1580557056.223,416259
1580557066.221,416259
1580557076.221,416260
1580557086.222,416262
1580557096.222,416262
1580557106.228,416263
1580557116.222,416264
1580557126.221,416266
1580557136.222,416268
1580557146.222,416269
1580557156.222,416270
1580557166.221,416270
1580557176.222,416270
1580557186.221,416271
1580557196.221,416271
1580557206.221,416272
1580557216.222,416272
1580557226.221,416272
1580557236.221,416272
1580557246.221,416274
1580557256.222,416274
1580557266.223,416274
1580557276.223,416275
1580557286.222,416275
1580557296.222,416276
1580557306.222,416276
1580557316.222,416277
1580557326.221,416277
1580557336.221,416279
1580557346.224,416279
1580557356.223,416279
1580557366.221,416281
1580557376.221,416282
1580557386.221,416283
1580557396.222,416283
1580557406.221,416284
1580557416.221,416284
1580557426.222,416284
1580557436.222,416285
1580557446.221,416285
1580557456.222,416285
1580557466.221,416286
1580557476.221,416287
1580557486.221,416288
1580557496.221,416289
1580557506.221,416290
1580557516.222,416290
1580557526.221,416292
1580557536.222,416292
1580557546.221,416292
1580557556.221,416292
1580557566.222,416292
1580557576.222,416293
1580557586.224,416294
1580557596.221,416295
1580557606.222,416295
1580557616.222,416296
1580557626.222,416298
1580557636.222,416298
1580557646.221,416298
1580557656.221,416298
1580557666.221,416299
1580557676.223,416299
1580557686.222,416300
1580557696.221,416300
1580557706.222,416301
1580557716.222,416301
1580557726.221,416302
1580557736.222,416302
1580557746.222,416304
1580557756.221,416304
1580557766.222,416305
1580557776.223,416306
1580557786.221,416306
1580557796.222,416307
1580557806.222,416307
1580557816.221,416308
1580557826.222,416308
1580557836.221,416308
1580557846.222,416311
1580557856.222,416312
1580557866.222,416312
1580557876.222,416312
1580557886.221,416312
1580557896.221,416314
1580557906.221,416316
1580557916.221,416317
1580557926.221,416317
1580557936.221,416318
1580557946.221,416318
1580557956.223,416319
1580557966.222,416319
1580557976.222,416319
1580557986.223,416321
1580557996.221,416322
1580558006.222,416322
1580558016.222,416324
1580558026.223,416325
1580558036.222,416326
1580558046.223,416327
1580558056.221,416327
1580558066.222,416328
1580558076.222,416328
1580558086.223,416329
1580558096.222,416329
1580558106.221,416329
1580558116.222,416329
1580558126.221,416329
1580558136.222,416329
1580558146.222,416329
1580558156.221,416330
1580558166.223,416331
1580558176.222,416331
1580558186.222,416332
1580558196.222,416332
1580558206.221,416332
1580558216.222,416332
1580558226.223,416333
1580558236.222,416333
1580558246.222,416334
1580558256.223,416334
1580558266.222,416335
1580558276.221,416336
1580558286.221,416338
1580558296.221,416340
1580558306.221,416340
1580558316.221,416341
1580558326.221,416342
1580558336.222,416343
1580558346.221,416345
1580558356.221,416345
1580558366.222,416346
1580558376.221,416346
1580558386.221,416347
1580558396.221,416349
1580558406.221,416351
1580558416.222,416351
1580558426.221,416351
1580558436.221,416351
1580558446.222,416352
1580558456.223,416353
1580558466.222,416353
1580558476.222,416354
1580558486.222,416355
1580558496.222,416355
1580558506.221,416356
1580558516.222,416356
1580558526.222,416356
1580558536.221,416356
1580558546.223,416357
1580558556.222,416359
1580558566.223,416360
1580558576.221,416360
1580558586.221,416361
1580558596.222,416361
1580558606.221,416361
1580558616.222,416362
1580558626.223,416363
1580558636.221,416364
1580558646.222,416366
1580558656.222,416366
1580558666.222,416367
1580558676.222,416369
1580558686.224,416370
1580558696.222,416370
1580558706.221,416370
1580558716.223,416370
1580558726.222,416371
1580558736.221,416371
1580558746.221,416372
1580558756.221,416374
1580558766.222,416375
1580558776.221,416375
1580558786.222,416378
1580558796.223,416378
1580558806.221,416379
1580558816.224,416381
1580558826.221,416382
1580558836.221,416382
1580558846.222,416382
1580558856.222,416384
1580558866.221,416384
1580558876.222,416385
1580558886.221,416386
1580558896.221,416386
1580558906.222,416386
1580558916.222,416387
1580558926.222,416387
1580558936.221,416389
1580558946.221,416389
1580558956.224,416389
1580558966.221,416390
1580558976.221,416391
1580558986.222,416392
1580558996.222,416393
1580559006.223,416394
1580559016.222,416395
1580559026.221,416396
1580559036.222,416396
1580559046.221,416396
1580559056.224,416397
1580559066.221,416399
1580559076.222,416400
1580559086.224,416400
1580559096.222,416400
1580559106.221,416401
1580559116.222,416401
1580559126.221,416403
1580559136.222,416403
1580559146.221,416404
1580559156.221,416404
1580559166.221,416405
1580559176.222,416406
1580559186.221,416406
1580559196.221,416406
1580559206.222,416408
1580559216.222,416409
1580559226.221,416409
1580559236.221,416411
1580559246.221,416412
1580559256.223,416412
1580559266.223,416413
1580559276.222,416414
1580559286.222,416415
1580559296.221,416415
1580559306.221,416416
1580559316.224,416418
1580559326.221,416418
1580559336.221,416418
1580559346.222,416419
1580559356.222,416419
1580559366.222,416419
1580559376.221,416419
1580559386.223,416421
1580559396.222,416421
1580559406.221,416422
1580559416.222,416422
1580559426.222,416424
1580559436.222,416424
1580559446.222,416425
1580559456.221,416426
1580559466.222,416426
1580559476.222,416426
1580559486.221,416428
1580559496.222,416429
1580559506.222,416429
1580559516.221,416430
1580559526.221,416430
1580559536.221,416430
1580559546.223,416430
1580559556.221,416431
1580559566.221,416433
1580559576.221,416434
1580559586.221,416434
1580559596.221,416435
1580559606.221,416435
1580559616.222,416435
1580559626.221,416436
1580559636.222,416436
1580559646.221,416436
1580559656.221,416437
1580559666.224,416437
1580559676.221,416438
1580559686.221,416439
1580559696.224,416439
1580559706.222,416441
1580559716.221,416442
1580559726.222,416442
1580559736.221,416443
1580559746.221,416444
1580559756.221,416446
1580559766.221,416446
1580559776.224,416448
1580559786.223,416448
1580559796.221,416449
1580559806.222,416450
1580559816.224,416450
1580559826.222,416450
1580559836.221,416452
1580559846.222,416452
1580559856.221,416452
1580559866.221,416453
1580559876.222,416453
1580559886.222,416454
1580559896.222,416454
1580559906.222,416456
1580559916.221,416456
1580559926.221,416458
1580559936.222,416459
1580559946.223,416461
1580559956.221,416461
1580559966.221,416463
1580559976.222,416464
1580559986.222,416465
1580559996.225,416466
1580560006.224,416466
1580560016.222,416468
1580560026.221,416468
1580560036.222,416470
1580560046.222,416472
1580560056.221,416474
1580560066.222,416474
1580560076.222,416475
1580560086.224,416476
1580560096.223,416477
1580560106.221,416477
1580560116.221,416479
1580560126.222,416480
1580560136.221,416482
1580560146.225,416482
1580560156.222,416483
1580560166.223,416484
1580560176.222,416485
1580560186.222,416485
1580560196.223,416486
1580560206.222,416486
1580560216.221,416486
1580560226.222,416487
1580560236.221,416488
1580560246.221,416488
1580560256.221,416489
1580560266.222,416490
1580560276.223,416490
1580560286.221,416490
1580560296.221,416491
1580560306.221,416491
1580560316.221,416492
1580560326.222,416495
1580560336.221,416495
1580560346.222,416496
1580560356.223,416496
1580560366.221,416496
1580560376.221,416496
1580560386.221,416497
1580560396.223,416497
1580560406.222,416497
1580560416.221,416498
1580560426.222,416499
1580560436.221,416500
1580560446.221,416500
1580560456.224,416500
1580560466.222,416500
1580560476.222,416500
1580560486.221,416500
1580560496.222,416501
1580560506.222,416502
1580560516.222,416502
1580560526.221,416503
1580560536.222,416505
1580560546.221,416506
1580560556.221,416506
1580560566.222,416508
1580560576.221,416508
1580560586.222,416508
1580560596.221,416508
1580560606.222,416509
1580560616.221,416510
1580560626.221,416511
1580560636.221,416512
1580560646.222,416513
