epoch,value
1580481728.163,0
1580481748.163,0
1580481758.163,3
1580481768.163,3
1580481778.163,5
1580481788.163,6
1580481798.163,7
1580481808.163,23
1580481818.164,33
1580481828.163,39
1580481838.163,45
1580481848.163,55
1580481858.163,63
1580481868.163,68
1580481878.163,73
1580481888.163,78
1580481898.163,88
1580481908.163,97
1580481918.163,106
1580481928.163,111
1580481938.163,121
1580481948.163,127
1580481958.163,129
1580481968.163,134
1580481988.164,145
1580481998.163,154
1580482008.163,161
1580482018.163,168
1580482028.163,178
1580482038.163,187
1580482048.163,191
1580482058.163,191
1580482068.163,191
1580482078.163,191
1580482088.163,191
1580482098.163,191
1580482108.163,191
1580482118.163,191
1580482128.163,192
1580482138.163,192
1580482148.163,192
1580482158.163,192
1580482168.163,192
1580482178.163,192
1580482188.163,192
1580482198.163,192
1580482208.163,192
1580482218.163,192
1580482228.163,192
1580482238.163,192
1580482248.163,192
1580482258.163,192
1580482268.165,192
1580482278.163,192
1580482288.163,192
1580482298.163,192
1580482308.163,192
1580482318.163,192
1580482328.163,192
1580482338.163,192
1580482348.163,192
1580482358.163,192
1580482368.163,192
1580482378.163,192
1580482388.163,192
1580482398.163,192
1580482408.163,192
1580482418.163,192
1580482428.163,192
1580482438.163,192
1580482448.163,192
1580482458.163,192
1580482468.163,192
1580482478.163,192
1580482488.163,192
1580482498.163,192
1580482508.163,192
1580482518.163,192
1580482528.163,192
1580482538.163,192
1580482548.163,192
1580482558.163,192
1580482568.163,193
1580482578.163,193
1580482588.163,193
1580482598.163,193
1580482608.163,193
1580482618.163,193
1580482628.163,193
1580482638.163,193
1580482648.163,193
1580482658.163,193
1580482668.163,193
1580482678.169,193
1580482688.163,193
1580482698.163,193
1580482708.163,193
1580482718.163,193
1580482728.163,193
1580482738.163,193
1580482748.163,193
1580482758.163,193
1580482768.163,194
1580482778.163,194
1580482788.163,194
1580482798.163,194
1580482808.163,194
1580482818.163,194
1580482828.163,194
1580482838.163,194
1580482848.163,194
1580482858.163,194
1580482868.163,194
1580482878.163,194
1580482888.163,194
1580482898.163,194
1580482908.163,194
1580482918.163,194
1580482928.163,194
1580482938.163,194
1580482948.163,194
1580482958.163,195
1580482968.163,195
1580482978.163,195
1580482988.163,195
1580482998.163,195
1580483008.163,195
1580483018.163,195
1580483028.163,196
1580483038.163,196
1580483048.167,196
1580483058.163,196
1580483068.163,196
1580483078.163,196
1580483088.163,196
1580483098.163,196
1580483108.163,196
1580483118.163,196
1580483128.163,196
1580483138.163,196
1580483148.163,196
1580483158.165,196
1580483168.163,196
1580483178.163,196
1580483188.163,196
1580483198.163,196
1580483208.165,196
1580483218.163,196
1580483228.163,196
1580483238.163,196
1580483248.163,196
1580483258.163,197
