epoch,value
1580209370.217,310548
1580209380.200,310548
1580209390.198,310548
1580209400.197,310548
1580209410.197,310549
1580209420.197,310549
1580209430.198,310550
1580209440.197,310550
1580209450.197,310550
1580209460.197,310550
1580209470.197,310550
1580209480.197,310550
1580209490.197,310550
1580209500.197,310552
1580209510.197,310552
1580209520.198,310552
1580209530.197,310552
1580209540.198,310552
1580209550.197,310552
1580209560.198,310552
1580209570.198,310552
1580209580.199,310554
1580209590.197,310554
1580209600.197,310554
1580209610.199,310554
1580209620.197,310554
1580209630.197,310554
1580209640.197,310554
1580209650.197,310554
1580209660.197,310556
1580209670.197,310556
1580209680.197,310556
1580209690.200,310556
1580209700.197,310556
1580209710.199,310556
1580209720.197,310556
1580209730.197,310557
1580209740.198,310558
1580209750.197,310560
1580209760.197,310561
1580209770.199,310561
1580209780.197,310561
1580209790.197,310561
1580209800.197,310562
1580209810.197,310562
1580209820.197,310562
1580209830.197,310562
1580209840.197,310564
1580209850.197,310564
1580209860.199,310564
1580209870.197,310565
1580209880.197,310565
1580209890.196,310567
1580209900.197,310567
1580209910.197,310567
1580209920.197,310569
1580209930.197,310570
1580209940.199,310570
1580209950.197,310571
1580209960.197,310572
1580209970.197,310572
1580209980.197,310573
1580209990.197,310573
1580210000.197,310574
1580210010.197,310574
1580210020.197,310574
1580210030.198,310575
1580210040.198,310575
1580210050.197,310576
1580210060.197,310576
1580210070.197,310577
1580210080.197,310577
1580210090.197,310577
1580210100.196,310578
1580210110.197,310578
1580210120.197,310579
1580210130.197,310581
1580210140.197,310581
1580210150.197,310582
1580210160.197,310582
1580210170.197,310582
1580210180.198,310584
1580210190.197,310585
1580210200.197,310585
1580210210.197,310585
1580210220.197,310586
1580210230.197,310588
1580210240.197,310591
1580210250.196,310591
1580210260.198,310591
1580210270.196,310591
1580210280.197,310592
1580210290.197,310593
1580210300.197,310594
1580210310.200,310594
1580210320.197,310594
1580210330.197,310594
1580210340.197,310596
1580210350.197,310596
1580210360.196,310598
1580210370.197,310598
1580210380.197,310599
1580210390.197,310600
1580210400.197,310600
1580210410.197,310601
1580210420.197,310602
1580210430.197,310603
1580210440.197,310604
1580210450.197,310604
1580210460.199,310605
1580210470.198,310605
1580210480.198,310606
1580210490.197,310606
1580210500.199,310606
1580210510.198,310606
1580210520.197,310607
1580210530.199,310607
1580210540.197,310607
1580210550.197,310607
1580210560.198,310607
1580210570.197,310607
1580210580.198,310607
1580210590.197,310609
1580210600.197,310610
1580210610.197,310610
1580210620.197,310611
1580210630.197,310611
1580210640.197,310612
1580210650.197,310613
1580210660.197,310613
1580210670.197,310614
1580210680.197,310614
1580210690.197,310614
1580210700.197,310615
1580210710.198,310615
1580210720.197,310615
1580210730.197,310615
1580210740.197,310616
1580210750.198,310616
1580210760.198,310616
1580210770.197,310616
1580210780.197,310617
1580210790.197,310617
1580210800.197,310618
1580210810.200,310619
1580210820.199,310619
1580210830.198,310621
1580210840.197,310622
1580210850.197,310622
1580210860.197,310622
1580210870.197,310622
1580210880.197,310622
1580210890.198,310623
1580210900.197,310623
1580210910.200,310623
1580210920.197,310623
1580210930.197,310624
1580210940.198,310624
1580210950.197,310624
1580210960.200,310624
1580210970.197,310626
1580210980.197,310626
1580210990.197,310626
1580211000.197,310627
1580211010.197,310627
1580211020.196,310628
1580211030.197,310629
1580211040.197,310629
1580211050.197,310629
1580211060.198,310630
1580211070.197,310630
1580211080.197,310630
1580211090.197,310630
1580211100.197,310630
1580211110.196,310631
1580211120.197,310632
1580211130.197,310632
1580211140.197,310633
1580211150.197,310635
1580211160.197,310636
1580211170.197,310636
1580211180.197,310636
1580211190.197,310638
1580211200.197,310639
1580211210.197,310639
1580211220.201,310640
1580211230.198,310640
1580211240.197,310640
1580211250.199,310640
1580211260.197,310642
1580211270.197,310643
1580211280.197,310643
1580211290.197,310644
1580211300.197,310645
1580211310.197,310645
1580211320.197,310646
1580211330.197,310647
1580211340.197,310647
1580211350.197,310648
1580211360.197,310648
1580211370.196,310650
1580211380.197,310652
1580211390.197,310653
1580211400.197,310653
1580211410.197,310653
1580211420.197,310653
1580211430.197,310654
1580211440.197,310654
1580211450.197,310656
1580211460.197,310657
1580211470.197,310657
1580211480.197,310657
1580211490.197,310658
1580211500.197,310658
1580211510.197,310660
1580211520.197,310661
1580211530.197,310661
1580211540.199,310662
1580211550.197,310662
1580211560.197,310662
1580211570.197,310662
1580211580.197,310663
1580211590.197,310663
1580211600.197,310663
1580211610.197,310663
1580211620.197,310664
1580211630.197,310665
1580211640.197,310665
1580211650.197,310666
1580211660.197,310668
1580211670.197,310669
1580211680.197,310672
1580211690.197,310673
1580211700.197,310673
1580211710.197,310675
1580211720.197,310677
1580211730.197,310677
1580211740.197,310678
1580211750.197,310679
1580211760.197,310679
1580211770.197,310679
1580211780.197,310679
1580211790.197,310679
1580211800.201,310681
1580211810.197,310681
1580211820.198,310682
1580211830.197,310682
1580211840.197,310682
1580211850.197,310682
1580211860.197,310682
1580211870.197,310683
1580211880.198,310684
1580211890.197,310684
1580211900.198,310685
1580211910.197,310686
1580211920.197,310687
1580211930.197,310687
1580211940.197,310688
1580211950.196,310688
1580211960.197,310689
1580211970.197,310689
1580211980.198,310689
1580211990.198,310689
1580212000.197,310690
1580212010.198,310690
1580212020.197,310690
1580212030.197,310690
1580212040.197,310690
1580212050.197,310692
1580212060.197,310692
1580212070.197,310692
1580212080.198,310692
1580212090.197,310692
1580212100.197,310692
1580212110.197,310693
1580212120.198,310694
1580212130.197,310694
1580212140.199,310694
1580212150.197,310696
