epoch,value
1580517785.467,0
1580517795.467,0
1580517805.467,0
1580517815.467,6
1580517825.467,14
1580517835.467,25
1580517845.467,26
1580517855.467,29
1580517865.467,34
1580517875.467,35
1580517885.467,36
1580517895.467,37
1580517905.467,38
1580517915.467,39
1580517925.467,41
1580517935.467,42
1580517945.467,43
1580517955.467,44
1580517965.467,45
1580517975.468,47
1580517985.467,48
1580517995.467,65
1580518005.467,66
1580518015.467,67
1580518025.467,85
1580518035.467,85
1580518045.467,104
1580518055.467,107
1580518065.467,111
1580518075.467,123
1580518085.467,124
1580518095.467,130
1580518105.467,130
1580518115.467,130
1580518125.467,130
1580518135.467,130
1580518145.467,130
1580518155.467,130
1580518165.467,130
1580518175.467,130
1580518185.467,130
1580518195.467,130
1580518205.473,130
1580518215.467,130
1580518225.467,130
1580518235.468,130
1580518245.467,130
1580518255.467,130
1580518265.467,130
1580518275.467,130
1580518285.467,130
1580518295.467,130
1580518305.467,130
1580518315.467,130
1580518325.467,131
1580518335.467,131
1580518345.467,131
1580518355.467,131
1580518365.467,131
1580518375.467,131
1580518385.467,131
1580518395.467,131
1580518405.467,131
1580518415.467,131
1580518425.467,131
1580518435.467,131
1580518445.467,131
1580518455.467,131
1580518465.467,131
1580518475.467,131
1580518485.467,131
1580518495.467,131
1580518505.467,131
1580518515.467,131
1580518525.467,131
1580518535.467,131
1580518545.467,131
1580518555.467,131
1580518565.467,131
1580518575.467,131
1580518585.467,131
1580518595.467,131
1580518605.467,131
1580518615.467,131
1580518625.467,131
1580518635.467,131
1580518645.467,131
1580518655.467,131
1580518665.467,131
1580518675.467,131
1580518685.467,131
1580518695.467,131
1580518705.467,131
1580518715.467,131
1580518725.467,131
1580518735.467,131
1580518745.467,131
1580518755.467,131
1580518765.467,131
1580518775.467,131
1580518785.467,131
1580518795.467,131
1580518805.467,131
1580518815.467,131
1580518825.467,131
1580518835.467,131
1580518845.467,131
1580518855.467,131
1580518865.467,131
1580518875.467,131
1580518885.467,131
1580518895.467,131
1580518905.467,131
1580518915.467,131
1580518925.467,131
1580518935.467,131
1580518945.467,131
1580518955.467,131
1580518965.467,131
1580518975.467,131
1580518985.467,131
1580518995.467,131
1580519005.467,131
1580519015.467,131
1580519025.467,131
1580519035.467,131
1580519045.467,131
1580519055.467,131
1580519065.467,131
1580519075.467,132
1580519085.467,132
1580519095.467,132
1580519105.467,132
1580519115.467,132
1580519125.467,132
1580519135.467,132
1580519145.467,132
1580519155.467,132
1580519165.467,132
1580519175.467,132
1580519185.467,132
1580519195.467,132
1580519205.467,132
1580519215.467,132
1580519225.467,132
1580519235.467,132
1580519245.467,132
1580519255.467,132
1580519265.467,132
1580519275.467,132
1580519285.467,132
1580519295.467,132
1580519305.467,132
1580519315.467,132
1580519325.467,132
1580519335.467,132
1580519345.467,132
1580519355.467,132
1580519365.467,132
1580519375.467,132
1580519385.467,132
1580519405.467,132
1580519415.467,132
1580519425.467,133
1580519435.467,133
1580519445.467,133
1580519455.467,133
1580519465.467,133
1580519475.473,133
1580519485.467,133
1580519495.467,133
1580519505.467,133
1580519515.467,133
1580519525.467,133
1580519535.467,133
1580519545.467,133
1580519555.467,133
1580519565.467,133
1580519575.467,133
1580519585.467,133
1580519595.467,133
1580519605.467,133
1580519615.467,133
1580519625.467,133
1580519635.467,133
1580519645.467,133
1580519655.467,133
1580519665.467,133
1580519675.467,134
1580519685.467,134
1580519695.467,134
1580519705.467,134
1580519715.467,134
1580519725.467,134
1580519735.467,134
1580519745.467,134
1580519755.467,134
1580519765.467,134
1580519775.467,134
1580519785.467,134
1580519795.467,134
1580519805.467,134
1580519815.467,134
1580519825.467,134
1580519835.467,134
1580519845.467,134
1580519855.467,134
1580519865.467,134
1580519875.467,134
1580519885.468,134
1580519895.467,134
1580519905.467,134
1580519915.467,134
1580519925.467,134
1580519935.467,134
1580519945.467,134
1580519955.467,134
1580519965.467,134
1580519975.467,134
1580519985.467,134
1580519995.467,134
1580520005.467,134
1580520015.467,134
1580520025.467,134
1580520035.467,134
1580520045.467,134
1580520055.467,135
1580520065.467,135
1580520075.467,135
1580520085.467,135
1580520095.467,135
1580520105.467,135
1580520115.467,135
1580520125.469,135
1580520135.467,135
1580520145.467,135
1580520155.467,135
1580520165.467,135
1580520175.467,135
1580520185.467,135
1580520195.467,135
1580520205.467,135
1580520215.467,135
1580520225.467,135
1580520235.467,135
1580520245.467,135
1580520255.467,135
1580520265.467,135
1580520275.467,135
1580520285.467,135
1580520295.467,135
1580520305.467,135
1580520315.467,135
1580520325.467,135
1580520335.467,135
1580520345.467,135
1580520355.467,135
1580520365.467,135
1580520375.467,135
1580520385.467,136
1580520395.467,136
1580520405.467,136
1580520415.467,136
1580520425.467,136
1580520435.467,136
1580520445.467,136
1580520455.467,136
1580520465.467,136
1580520475.467,136
1580520485.467,136
1580520495.467,136
1580520505.467,136
1580520515.467,136
1580520525.467,136
1580520535.467,136
1580520545.467,136
1580520555.467,136
1580520565.467,136
1580520575.467,136
1580520585.467,136
1580520595.467,136
1580520605.467,136
1580520615.467,136
1580520625.467,136
1580520635.467,136
1580520645.467,136
1580520655.467,136
1580520665.467,136
1580520675.467,136
1580520685.467,136
1580520695.467,136
1580520705.467,136
1580520715.467,136
1580520725.467,136
1580520735.467,136
1580520745.467,136
1580520755.467,136
1580520765.467,136
1580520775.467,136
1580520785.467,136
1580520795.467,136
1580520805.467,136
1580520815.467,136
1580520825.467,136
1580520835.467,136
1580520845.467,136
1580520855.467,136
1580520865.467,137
1580520875.467,137
1580520885.467,137
1580520895.467,137
1580520905.467,137
1580520915.467,137
1580520925.467,137
1580520935.467,137
1580520945.467,137
1580520955.467,137
1580520965.467,137
1580520975.467,137
1580520985.467,137
1580520995.467,137
1580521005.467,137
1580521015.467,137
1580521025.467,137
1580521035.467,137
1580521045.467,137
1580521055.467,137
1580521065.467,137
1580521075.467,137
1580521085.467,137
1580521095.467,137
1580521105.467,137
1580521115.467,137
1580521125.467,137
1580521135.467,137
1580521145.467,137
1580521155.467,137
1580521165.467,137
1580521175.467,137
1580521185.467,137
1580521195.467,137
1580521205.467,137
1580521215.467,137
1580521225.467,137
1580521235.467,137
1580521245.467,137
1580521255.467,137
1580521265.467,137
1580521275.467,137
1580521285.467,137
1580521295.467,137
1580521305.467,137
1580521315.467,137
1580521325.467,137
1580521335.467,137
1580521345.467,137
1580521355.467,137
1580521365.467,137
1580521375.467,137
1580521385.467,137
1580521395.467,137
1580521405.467,138
1580521415.467,138
1580521425.467,138
1580521435.467,138
1580521445.467,138
1580521455.467,138
1580521465.467,138
1580521485.467,138
1580521495.467,138
1580521505.467,138
1580521515.467,138
1580521525.467,138
1580521535.467,138
1580521545.467,138
1580521555.467,138
1580521565.467,138
1580521575.467,138
1580521585.473,138
1580521595.467,138
1580521605.467,138
1580521615.467,138
1580521625.467,138
1580521635.467,138
1580521645.467,138
1580521655.467,138
1580521665.467,138
1580521675.467,138
1580521685.467,138
1580521695.467,138
1580521705.467,138
1580521715.467,138
1580521725.467,138
1580521735.467,138
1580521745.467,138
1580521755.467,138
1580521765.467,138
1580521775.467,139
1580521785.467,139
1580521795.467,139
1580521805.467,139
1580521815.467,139
1580521825.467,139
1580521835.467,139
1580521845.467,139
1580521855.467,139
1580521865.467,139
1580521875.467,139
1580521885.467,139
1580521895.467,139
1580521905.467,139
1580521915.467,139
1580521925.467,139
1580521935.467,139
1580521945.467,139
1580521955.467,139
1580521965.467,139
1580521975.467,139
1580521985.467,139
1580521995.467,139
1580522005.467,139
1580522015.467,139
1580522025.467,139
1580522035.467,139
1580522045.467,139
1580522055.467,139
1580522065.467,139
1580522075.467,139
1580522085.467,139
1580522095.467,139
1580522105.467,139
1580522115.467,139
1580522125.467,139
1580522135.467,139
1580522145.467,139
1580522155.467,139
1580522165.467,140
1580522175.473,140
1580522185.467,140
1580522195.467,140
1580522205.467,140
1580522215.467,140
1580522225.467,140
1580522235.467,140
1580522245.467,140
1580522255.467,140
1580522265.467,140
1580522275.467,140
1580522285.467,140
1580522295.467,140
1580522305.467,140
1580522315.467,140
1580522325.467,140
1580522335.467,140
1580522345.467,140
1580522355.467,140
1580522365.467,140
1580522375.467,140
1580522385.467,140
1580522395.467,140
1580522405.467,140
1580522415.467,140
1580522425.467,140
1580522435.467,140
1580522445.467,140
1580522455.467,140
1580522465.467,140
1580522475.467,140
1580522485.467,140
1580522495.467,140
1580522505.467,140
1580522515.467,140
1580522525.467,140
1580522535.467,140
1580522545.467,140
1580522555.467,140
1580522565.467,140
1580522575.467,140
1580522585.467,140
1580522595.467,140
1580522605.467,140
1580522615.467,140
1580522625.467,140
1580522635.467,140
1580522645.467,140
1580522655.467,140
1580522665.467,140
1580522675.467,140
1580522685.467,140
1580522695.467,140
1580522705.467,140
1580522715.467,140
1580522725.467,140
1580522735.467,141
1580522745.467,141
1580522755.467,141
1580522765.467,141
1580522775.467,141
1580522785.467,141
1580522795.467,141
1580522805.467,141
1580522815.467,141
1580522825.467,141
1580522835.467,141
1580522845.467,141
1580522855.467,141
1580522865.467,141
1580522875.467,141
1580522885.467,141
1580522895.467,141
1580522905.467,141
1580522915.467,141
1580522925.467,141
1580522935.467,141
1580522945.470,141
1580522955.467,141
1580522965.467,141
1580522975.467,141
1580522985.467,141
1580522995.467,141
1580523005.467,141
1580523015.467,141
1580523025.467,141
1580523035.467,141
1580523045.467,141
1580523055.467,141
1580523065.467,141
1580523075.467,141
1580523085.467,141
1580523095.467,141
1580523105.467,141
1580523115.467,141
1580523125.467,141
1580523135.467,141
1580523145.467,141
1580523155.467,141
1580523165.467,141
1580523175.467,141
1580523185.467,141
1580523195.467,141
1580523205.467,141
1580523215.467,141
1580523225.467,141
1580523235.467,141
1580523245.467,141
1580523255.467,141
1580523265.467,141
1580523275.467,141
1580523285.467,141
1580523295.467,141
1580523305.467,141
1580523315.467,141
1580523325.467,141
1580523335.467,141
1580523345.467,141
1580523355.467,141
1580523365.467,141
1580523375.467,141
1580523385.467,141
1580523395.467,141
1580523405.467,141
1580523415.467,141
1580523425.467,141
1580523435.468,141
1580523445.467,142
1580523455.467,142
1580523465.467,142
1580523475.467,142
1580523485.467,142
1580523495.467,142
1580523505.467,142
1580523515.467,142
1580523525.467,142
1580523535.467,142
1580523545.467,142
1580523555.467,142
1580523565.467,142
1580523575.467,142
1580523585.467,142
1580523595.467,142
1580523605.467,142
1580523615.467,142
1580523625.467,142
1580523635.467,142
1580523645.467,142
1580523655.467,142
1580523665.467,142
1580523675.467,142
1580523685.467,142
1580523695.467,142
1580523705.467,142
1580523715.467,142
1580523725.467,142
1580523735.467,142
1580523745.467,142
1580523755.467,142
1580523765.467,142
1580523775.467,142
1580523785.467,142
1580523795.467,142
1580523805.467,143
1580523815.467,143
1580523825.467,143
1580523835.467,143
1580523845.467,143
1580523855.467,143
1580523865.467,143
1580523875.467,143
1580523885.467,143
1580523895.467,143
1580523905.467,143
1580523915.467,143
1580523925.467,143
1580523935.467,143
1580523945.467,143
1580523955.467,143
1580523965.467,143
1580523975.467,143
1580523985.467,143
1580523995.473,143
1580524005.467,143
1580524015.467,143
1580524025.467,143
1580524035.467,143
1580524045.467,143
1580524055.467,143
1580524065.467,143
1580524075.467,143
1580524085.467,143
1580524095.467,143
1580524105.467,143
1580524115.467,143
1580524125.467,143
1580524135.467,143
1580524145.467,143
1580524155.467,143
1580524165.467,143
1580524175.467,143
1580524185.467,143
1580524195.467,143
1580524205.467,143
1580524215.467,143
1580524225.467,143
1580524235.467,143
1580524245.467,143
1580524255.467,143
1580524265.467,144
1580524275.467,144
1580524285.467,144
1580524295.467,144
1580524305.467,144
1580524315.467,144
1580524325.467,144
1580524335.467,144
1580524345.467,144
1580524355.467,144
1580524365.467,144
1580524375.467,144
1580524385.467,144
1580524395.467,144
1580524405.467,144
1580524415.467,144
1580524425.467,144
1580524435.467,144
1580524445.467,144
1580524455.467,144
1580524465.467,144
1580524475.467,144
1580524485.467,144
1580524495.467,144
1580524505.467,144
1580524515.467,144
1580524525.467,144
1580524535.467,144
1580524545.467,144
1580524555.467,144
1580524565.467,144
1580524575.467,144
1580524585.467,144
1580524595.467,144
1580524605.467,144
1580524615.467,144
1580524625.467,144
1580524635.467,144
1580524645.467,144
1580524655.467,145
1580524665.467,145
1580524675.467,145
1580524685.467,145
1580524695.467,145
1580524705.467,145
1580524715.467,145
1580524725.467,145
1580524735.467,145
1580524745.467,145
1580524755.467,145
1580524765.467,145
1580524775.467,145
1580524785.467,145
1580524795.467,145
1580524805.469,145
1580524815.467,145
1580524825.467,145
1580524835.467,145
1580524845.467,145
1580524855.467,145
1580524865.467,145
1580524875.467,145
1580524885.467,145
1580524895.467,145
1580524905.467,145
1580524915.467,145
1580524925.467,145
1580524935.471,145
1580524945.467,145
1580524955.467,145
1580524965.467,145
1580524975.467,145
1580524985.467,145
1580524995.467,145
1580525005.467,145
1580525015.467,145
1580525025.467,145
1580525035.467,145
1580525045.467,145
1580525055.467,145
1580525065.467,145
1580525075.467,145
1580525085.467,145
1580525095.467,145
1580525105.467,145
1580525115.467,145
1580525125.467,145
1580525135.467,145
1580525145.467,145
1580525155.468,145
1580525165.467,146
1580525175.467,146
1580525185.467,146
1580525195.467,146
1580525205.467,146
1580525215.467,146
1580525225.467,146
1580525235.467,146
1580525245.467,146
1580525255.467,146
1580525265.467,146
1580525275.467,146
1580525285.467,146
1580525295.467,146
1580525305.467,146
1580525315.467,146
1580525325.467,146
1580525335.467,146
1580525345.467,146
1580525355.467,146
1580525365.467,146
1580525375.467,146
1580525385.467,146
1580525395.467,146
1580525405.467,146
1580525415.467,146
1580525425.467,146
1580525435.467,146
1580525445.467,146
1580525455.467,146
1580525465.467,146
1580525475.469,146
1580525485.467,146
1580525495.467,147
1580525505.473,147
1580525515.467,147
1580525525.467,147
1580525535.467,147
1580525545.467,147
1580525555.467,147
1580525565.467,147
1580525575.467,147
1580525585.467,147
1580525595.467,148
1580525605.467,148
1580525615.467,148
1580525625.467,148
1580525635.467,148
1580525645.467,148
1580525655.467,148
1580525665.467,148
1580525675.467,148
1580525685.467,148
1580525695.467,148
1580525705.467,148
1580525715.467,148
1580525725.467,148
1580525735.467,148
1580525745.467,148
1580525755.467,148
1580525765.467,148
1580525775.467,148
1580525785.467,149
1580525795.467,149
1580525805.467,149
1580525815.467,149
1580525825.467,149
1580525835.467,149
1580525845.467,149
1580525855.467,149
1580525865.467,149
1580525875.467,149
1580525885.467,149
1580525895.467,149
1580525905.467,149
1580525915.467,149
