epoch,value
1579808604.001,11669
1579808613.985,11669
1579808623.981,11669
1579808633.982,11669
1579808643.981,11669
1579808653.981,11669
1579808663.981,11669
1579808673.981,11669
1579808683.981,11669
1579808693.981,11669
1579808703.982,11670
1579808713.981,11670
1579808723.982,11670
1579808733.981,11671
1579808743.981,11672
1579808753.981,11672
1579808763.981,11672
1579808773.983,11672
1579808783.981,11672
1579808793.981,11672
1579808803.981,11674
1579808813.981,11674
1579808823.981,11674
1579808833.981,11674
1579808843.981,11674
1579808853.981,11674
1579808863.981,11674
1579808873.981,11674
1579808883.981,11674
1579808893.981,11674
1579808903.982,11674
1579808913.981,11674
1579808923.981,11674
1579808933.984,11674
1579808943.981,11674
1579808953.981,11674
1579808963.981,11674
1579808973.981,11674
1579808983.981,11674
1579808993.983,11674
1579809003.981,11674
1579809013.981,11674
1579809023.981,11674
1579809033.981,11674
1579809043.981,11674
1579809053.981,11674
1579809063.982,11675
1579809073.981,11675
1579809083.981,11675
1579809093.982,11675
1579809103.981,11675
1579809113.981,11675
1579809123.981,11675
1579809133.981,11675
1579809143.981,11675
1579809153.981,11675
1579809163.982,11675
1579809173.981,11675
1579809183.981,11675
1579809193.981,11675
1579809203.981,11675
1579809213.981,11675
1579809223.981,11675
1579809233.981,11675
1579809243.980,11676
1579809253.981,11676
1579809263.981,11676
1579809273.981,11677
1579809283.981,11677
1579809293.982,11677
1579809303.982,11677
1579809313.981,11677
1579809323.982,11677
1579809333.981,11679
1579809343.981,11679
1579809353.981,11679
1579809363.981,11679
1579809373.981,11679
1579809383.981,11679
1579809393.981,11679
1579809403.981,11679
1579809413.982,11679
1579809423.981,11679
1579809433.982,11679
1579809443.981,11679
1579809453.981,11679
1579809463.981,11679
1579809473.980,11679
1579809483.981,11679
1579809493.982,11679
1579809503.981,11679
1579809513.981,11679
1579809523.981,11679
1579809533.981,11679
1579809543.981,11679
1579809553.982,11679
1579809563.983,11679
1579809573.982,11679
1579809583.981,11679
1579809593.981,11679
1579809603.981,11679
1579809613.982,11679
1579809623.981,11679
1579809633.981,11679
1579809643.981,11679
1579809653.982,11679
1579809663.981,11679
1579809673.981,11679
1579809683.981,11679
1579809693.984,11679
1579809703.982,11679
1579809713.981,11679
1579809723.983,11679
1579809733.981,11679
1579809743.981,11679
1579809753.983,11679
1579809763.981,11679
1579809773.981,11679
1579809783.981,11679
1579809793.981,11679
1579809803.981,11679
1579809813.982,11679
1579809823.981,11679
1579809833.981,11679
1579809843.981,11679
1579809853.982,11679
1579809863.981,11679
1579809873.982,11679
1579809883.981,11679
1579809893.981,11679
1579809903.980,11679
1579809913.981,11679
1579809923.981,11679
1579809933.981,11679
1579809943.981,11679
1579809953.981,11679
1579809963.981,11679
1579809973.981,11679
1579809983.981,11679
1579809993.981,11679
1579810003.981,11679
1579810013.981,11679
1579810023.983,11679
1579810033.981,11679
1579810043.981,11679
1579810053.981,11679
1579810063.981,11679
1579810073.982,11679
1579810083.983,11679
1579810093.981,11679
1579810103.981,11679
1579810113.981,11679
1579810123.981,11679
1579810133.981,11679
1579810143.981,11679
1579810153.981,11679
1579810163.981,11679
