epoch,value
1580812835.154,0
1580812845.161,0
1580812865.154,1
1580812875.154,2
1580812885.155,3
1580812895.154,3
1580812905.154,4
1580812915.154,5
1580812935.154,6
1580812945.154,7
1580812955.154,9
1580812965.154,9
1580812975.154,21
1580812985.154,22
1580812995.154,23
1580813005.154,37
1580813015.154,37
1580813025.154,38
1580813035.154,39
1580813055.154,41
1580813075.154,42
1580813085.154,43
1580813105.154,44
1580813115.154,45
1580813125.154,45
1580813135.154,49
1580813145.154,50
1580813155.154,50
1580813165.154,50
1580813175.154,50
1580813185.154,50
1580813195.154,50
1580813205.154,50
1580813215.154,51
1580813225.154,51
1580813235.154,51
1580813245.154,51
1580813255.154,51
1580813265.154,51
1580813275.154,51
1580813285.154,51
1580813295.154,51
1580813305.154,51
1580813315.154,51
1580813325.154,52
1580813335.154,52
1580813345.154,52
1580813365.154,52
1580813375.154,52
1580813385.154,52
1580813395.154,52
1580813405.154,52
1580813415.154,52
1580813425.155,52
1580813435.154,52
1580813445.154,52
1580813455.154,52
1580813465.154,52
1580813475.154,52
1580813485.154,52
1580813495.154,52
1580813505.154,52
1580813515.154,52
1580813525.154,52
1580813535.154,52
1580813545.154,52
1580813555.154,52
1580813565.154,52
1580813575.154,52
1580813585.154,52
1580813595.154,52
1580813605.161,52
1580813615.154,52
1580813625.154,52
1580813635.154,52
1580813645.154,52
1580813655.154,52
1580813665.154,52
1580813675.154,52
1580813685.154,52
1580813695.154,52
1580813705.154,52
1580813715.154,52
1580813725.154,52
1580813735.154,52
1580813745.154,52
1580813755.154,52
1580813765.154,52
1580813775.154,52
1580813785.154,52
1580813795.154,52
1580813805.154,52
1580813815.154,52
1580813825.154,52
1580813835.154,52
1580813845.154,52
1580813855.154,52
1580813865.154,52
1580813875.154,52
1580813885.154,52
1580813895.154,52
1580813905.154,52
1580813915.154,52
1580813925.154,52
1580813935.154,52
1580813945.154,52
1580813955.154,52
1580813965.154,52
1580813975.154,52
1580813985.154,52
1580813995.154,52
1580814005.154,52
1580814015.154,52
1580814025.154,52
1580814035.163,52
1580814045.154,52
1580814055.154,52
1580814065.154,52
1580814075.154,52
1580814085.154,52
1580814095.154,52
1580814105.154,52
1580814115.154,52
1580814125.154,52
1580814135.154,52
1580814145.154,52
1580814155.154,52
1580814165.155,52
1580814175.154,52
1580814185.154,52
1580814195.154,52
1580814205.154,52
1580814215.154,52
1580814225.154,52
1580814235.154,52
1580814245.154,52
1580814255.154,52
1580814265.154,52
1580814275.154,52
1580814285.154,52
1580814295.154,52
1580814305.154,52
1580814315.154,52
1580814325.154,52
1580814335.154,52
1580814345.154,53
