epoch,value
1579882991.949,51068
1579883001.931,51068
1579883011.930,51068
1579883021.930,51068
1579883031.930,51069
1579883041.930,51069
1579883051.930,51070
1579883061.930,51070
1579883071.930,51070
1579883081.930,51070
1579883091.930,51070
1579883101.930,51070
1579883111.931,51070
1579883121.931,51070
1579883131.931,51070
1579883141.931,51070
1579883151.930,51071
1579883161.931,51071
1579883171.930,51071
1579883181.930,51071
1579883191.932,51073
1579883201.930,51074
1579883211.930,51074
1579883221.930,51074
1579883231.930,51074
1579883241.930,51074
1579883251.930,51074
1579883261.930,51074
1579883271.930,51074
1579883281.930,51074
1579883291.930,51074
1579883301.931,51074
1579883311.930,51074
1579883321.932,51074
1579883331.930,51074
1579883341.930,51074
1579883351.930,51075
1579883361.930,51075
1579883371.930,51075
1579883381.930,51075
1579883391.930,51076
1579883401.930,51078
1579883411.930,51078
1579883421.930,51078
1579883431.930,51078
1579883441.930,51078
1579883451.930,51078
1579883461.930,51078
1579883471.932,51080
1579883481.930,51080
1579883491.930,51080
1579883501.930,51080
1579883511.932,51080
1579883521.930,51080
1579883531.930,51080
1579883541.930,51081
1579883551.930,51081
1579883561.930,51081
1579883571.930,51082
1579883581.930,51082
1579883591.930,51082
1579883601.930,51082
1579883611.930,51082
1579883621.931,51082
1579883631.930,51082
1579883641.931,51082
1579883651.930,51082
1579883661.930,51082
1579883671.931,51082
1579883681.930,51083
1579883691.931,51083
1579883701.930,51083
1579883711.932,51084
1579883721.930,51084
1579883731.930,51084
1579883741.930,51084
1579883751.930,51084
1579883761.930,51084
1579883771.930,51084
1579883781.930,51084
1579883791.933,51084
1579883801.930,51084
1579883811.930,51085
1579883821.930,51085
1579883831.930,51085
1579883841.930,51086
1579883851.931,51086
1579883861.930,51087
1579883871.931,51087
1579883881.930,51087
1579883891.930,51087
1579883901.930,51087
1579883911.930,51087
1579883921.930,51087
1579883931.931,51087
1579883941.930,51087
1579883951.930,51087
1579883961.930,51087
1579883971.931,51088
1579883981.930,51090
1579883991.930,51090
1579884001.930,51090
1579884011.931,51090
1579884021.930,51090
1579884031.930,51090
1579884041.930,51090
1579884051.932,51090
1579884061.930,51090
1579884071.931,51090
1579884081.930,51091
1579884091.930,51091
1579884101.930,51091
1579884111.930,51091
1579884121.930,51091
1579884131.930,51091
1579884141.930,51091
1579884151.930,51091
1579884161.930,51091
1579884171.930,51091
1579884181.930,51091
1579884191.930,51091
1579884201.930,51091
1579884211.930,51091
1579884221.930,51091
1579884231.930,51091
1579884241.931,51091
1579884251.930,51091
1579884261.930,51092
1579884271.931,51092
1579884281.931,51092
1579884291.931,51092
1579884301.930,51092
1579884311.930,51092
1579884321.930,51092
1579884331.930,51092
1579884341.930,51092
1579884351.930,51092
1579884361.930,51092
1579884371.930,51092
1579884381.931,51092
1579884391.930,51093
1579884401.930,51094
1579884411.930,51094
1579884421.932,51094
1579884431.930,51094
1579884441.930,51094
1579884451.931,51094
1579884461.930,51094
1579884471.930,51094
1579884481.930,51094
1579884491.930,51094
1579884501.930,51095
1579884511.930,51095
1579884521.930,51095
1579884531.930,51095
1579884541.930,51095
1579884551.932,51095
1579884561.930,51095
1579884571.930,51095
1579884581.930,51095
1579884591.930,51095
1579884601.930,51095
1579884611.930,51095
1579884621.930,51095
1579884631.933,51095
1579884641.930,51095
1579884651.930,51095
1579884661.932,51095
1579884671.930,51095
1579884681.930,51095
1579884691.931,51095
1579884701.933,51095
1579884711.930,51095
1579884721.930,51095
1579884731.930,51095
1579884741.930,51095
1579884751.930,51095
1579884761.930,51095
1579884771.930,51095
1579884781.930,51095
1579884791.930,51095
1579884801.930,51095
1579884811.931,51096
1579884821.930,51097
1579884831.930,51098
1579884841.930,51098
1579884851.930,51098
1579884861.930,51098
1579884871.930,51100
1579884881.930,51100
1579884891.930,51101
1579884901.930,51101
1579884911.930,51101
1579884921.930,51101
1579884931.930,51101
1579884941.930,51101
1579884951.930,51101
1579884961.930,51101
1579884971.930,51101
1579884981.930,51101
1579884991.931,51101
1579885001.931,51101
1579885011.930,51102
1579885021.930,51102
1579885031.931,51102
1579885041.930,51102
1579885051.930,51102
1579885061.930,51102
1579885071.930,51102
1579885081.930,51102
1579885091.930,51102
1579885101.932,51102
1579885111.930,51102
1579885121.930,51102
1579885131.930,51103
1579885141.930,51103
1579885151.930,51104
1579885161.930,51104
1579885171.930,51104
1579885181.930,51104
1579885191.930,51104
1579885201.930,51104
1579885211.930,51104
1579885221.930,51104
1579885231.930,51104
1579885241.930,51104
1579885251.930,51104
1579885261.930,51104
1579885271.930,51104
1579885281.930,51104
1579885291.933,51104
1579885301.930,51104
1579885311.930,51104
1579885321.930,51104
1579885331.930,51104
1579885341.930,51104
1579885351.931,51104
1579885361.930,51104
1579885371.930,51104
1579885381.930,51104
1579885391.930,51104
1579885401.932,51104
1579885411.930,51104
1579885421.930,51104
1579885431.930,51104
1579885441.930,51104
1579885451.930,51106
1579885461.930,51106
1579885471.930,51106
1579885481.930,51106
1579885491.930,51106
1579885501.930,51106
1579885511.930,51106
1579885521.930,51106
1579885531.930,51106
1579885541.930,51106
1579885551.932,51106
1579885561.930,51106
1579885571.930,51106
1579885581.930,51106
1579885591.930,51106
1579885601.933,51106
1579885611.932,51106
1579885621.933,51106
1579885631.930,51106
1579885641.930,51106
1579885651.930,51106
1579885661.930,51106
1579885671.930,51106
1579885681.930,51106
1579885691.930,51106
1579885701.930,51106
1579885711.930,51106
1579885721.932,51106
1579885731.930,51106
1579885741.930,51106
1579885751.931,51106
