epoch,value
1580534434.430,414876
1580534444.404,414877
1580534454.404,414878
1580534464.404,414878
1580534474.405,414880
1580534484.405,414880
1580534494.404,414880
1580534504.404,414880
1580534514.404,414882
1580534524.404,414882
1580534534.406,414882
1580534544.404,414882
1580534554.404,414882
1580534564.404,414882
1580534574.404,414883
1580534584.404,414883
1580534594.404,414885
1580534604.404,414885
1580534614.404,414885
1580534624.404,414885
1580534634.404,414888
1580534644.404,414889
1580534654.404,414889
1580534664.404,414890
1580534674.404,414890
1580534684.404,414890
1580534694.404,414890
1580534704.404,414892
1580534714.408,414893
1580534724.404,414893
1580534734.406,414893
1580534744.404,414893
1580534754.404,414894
1580534764.404,414896
1580534774.404,414898
1580534784.404,414898
1580534794.404,414898
1580534804.406,414898
1580534814.404,414898
1580534824.405,414899
1580534834.404,414899
1580534844.404,414900
1580534854.404,414901
1580534864.404,414901
1580534874.405,414903
1580534884.404,414904
1580534894.404,414904
1580534904.404,414906
1580534914.404,414906
1580534924.405,414906
1580534934.404,414907
1580534944.405,414907
1580534954.404,414908
1580534964.404,414908
1580534974.404,414909
1580534984.404,414910
1580534994.404,414912
1580535004.404,414912
1580535014.404,414913
1580535024.404,414913
1580535034.404,414913
1580535044.405,414914
1580535054.404,414915
1580535064.404,414916
1580535074.404,414916
1580535084.404,414917
1580535094.405,414918
1580535104.404,414918
1580535114.404,414919
1580535124.404,414922
1580535134.404,414922
1580535144.404,414923
1580535154.404,414923
1580535164.404,414924
1580535174.404,414924
1580535184.406,414926
1580535194.405,414926
1580535204.404,414927
1580535214.404,414927
1580535224.404,414927
1580535234.406,414928
1580535244.404,414928
1580535254.404,414929
1580535264.404,414930
1580535274.404,414930
1580535284.404,414932
1580535294.405,414933
1580535304.404,414934
1580535314.404,414934
1580535324.406,414935
1580535334.404,414936
1580535344.404,414936
1580535354.404,414936
1580535364.404,414936
1580535374.404,414936
1580535384.404,414937
1580535394.404,414937
1580535404.406,414937
1580535414.405,414937
1580535424.405,414938
1580535434.405,414938
1580535444.404,414938
1580535454.404,414938
1580535464.404,414938
1580535474.404,414938
1580535484.404,414938
1580535494.405,414938
1580535504.404,414939
1580535514.404,414939
1580535524.405,414940
1580535534.407,414941
1580535544.404,414942
1580535554.404,414943
1580535564.404,414944
1580535574.404,414944
1580535584.404,414945
1580535594.404,414945
1580535604.404,414945
1580535614.404,414945
1580535624.407,414946
1580535634.404,414946
1580535644.405,414947
1580535654.405,414948
1580535664.404,414949
1580535674.404,414949
1580535684.404,414950
1580535694.405,414950
1580535704.404,414950
1580535714.404,414951
1580535724.404,414952
1580535734.404,414952
1580535744.404,414956
1580535754.404,414956
1580535764.404,414956
1580535774.404,414956
1580535784.404,414956
1580535794.404,414956
1580535804.406,414956
1580535814.404,414956
1580535824.404,414957
1580535834.404,414957
1580535844.404,414958
1580535854.405,414958
1580535864.405,414958
1580535874.404,414959
1580535884.405,414959
1580535894.404,414959
1580535904.404,414960
1580535914.404,414961
1580535924.404,414961
1580535934.405,414962
1580535944.406,414963
1580535954.404,414963
1580535964.404,414963
1580535974.404,414964
1580535984.404,414964
1580535994.404,414966
1580536004.404,414966
1580536014.404,414968
1580536024.404,414969
1580536034.404,414970
1580536044.405,414970
1580536054.404,414970
1580536064.405,414972
1580536074.405,414972
1580536084.404,414972
1580536094.404,414972
1580536104.405,414975
1580536114.404,414975
1580536124.404,414975
1580536134.404,414975
1580536144.404,414975
1580536154.404,414975
1580536164.404,414975
1580536174.404,414975
1580536184.406,414975
1580536194.405,414976
1580536204.404,414976
1580536214.404,414978
1580536224.408,414978
1580536234.404,414981
1580536244.404,414981
1580536254.404,414981
1580536264.404,414982
1580536274.404,414982
1580536284.404,414982
1580536294.404,414982
1580536304.404,414982
1580536314.404,414982
1580536324.404,414983
1580536334.404,414983
1580536344.404,414983
1580536354.404,414983
1580536364.404,414983
1580536374.404,414983
1580536384.404,414983
1580536394.405,414983
1580536404.405,414983
1580536414.404,414984
1580536424.405,414984
1580536434.404,414984
1580536444.404,414984
1580536454.404,414984
1580536464.404,414984
1580536474.404,414984
1580536484.404,414985
1580536494.404,414985
1580536504.405,414988
1580536514.404,414988
1580536524.405,414988
1580536534.404,414988
1580536544.404,414989
1580536554.404,414990
1580536564.404,414990
1580536574.404,414990
1580536584.404,414990
1580536594.407,414991
1580536604.404,414992
1580536614.405,414992
1580536624.404,414992
1580536634.405,414992
1580536644.405,414992
1580536654.404,414992
1580536664.404,414992
1580536674.404,414992
1580536684.404,414992
1580536694.405,414993
1580536704.405,414993
1580536714.404,414994
1580536724.404,414994
1580536734.404,414994
1580536744.404,414995
1580536754.404,414996
1580536764.404,414996
1580536774.404,414998
1580536784.404,414998
1580536794.407,414998
1580536804.404,414998
1580536814.405,414998
1580536824.404,414999
1580536834.406,414999
1580536844.404,414999
1580536854.404,415000
1580536864.406,415001
1580536874.404,415001
1580536884.406,415001
1580536894.405,415002
1580536904.405,415002
1580536914.404,415002
1580536924.404,415002
1580536934.404,415003
1580536944.404,415003
1580536954.404,415003
1580536964.404,415004
1580536974.404,415004
1580536984.404,415005
1580536994.405,415005
1580537004.404,415005
1580537014.404,415006
1580537024.404,415006
1580537034.404,415006
1580537044.405,415006
1580537054.404,415007
1580537064.404,415008
1580537074.404,415008
1580537084.404,415009
1580537094.404,415010
1580537104.404,415011
1580537114.405,415012
1580537124.407,415013
1580537134.407,415013
1580537144.404,415014
1580537154.404,415014
1580537164.404,415014
1580537174.404,415016
1580537184.405,415017
1580537194.404,415017
1580537204.404,415017
1580537214.404,415017
1580537224.404,415018
1580537234.404,415018
1580537244.404,415019
1580537254.404,415019
1580537264.404,415021
1580537274.404,415021
1580537284.404,415021
1580537294.404,415021
1580537304.404,415022
1580537314.404,415022
1580537324.404,415023
1580537334.404,415024
1580537344.404,415024
1580537354.404,415025
1580537364.404,415025
1580537374.405,415026
1580537384.404,415026
1580537394.404,415026
1580537404.404,415026
1580537414.405,415028
1580537424.404,415028
1580537434.404,415030
1580537444.404,415030
1580537454.404,415031
1580537464.404,415032
1580537474.404,415033
1580537484.405,415033
1580537494.404,415034
1580537504.404,415034
1580537514.408,415034
1580537524.404,415034
1580537534.404,415035
1580537544.404,415036
1580537554.404,415036
1580537564.404,415036
1580537574.404,415036
1580537584.404,415036
1580537594.404,415036
1580537604.404,415036
1580537614.405,415037
1580537624.404,415037
1580537634.404,415038
1580537644.407,415038
1580537654.405,415040
1580537664.404,415041
1580537674.404,415042
1580537684.404,415042
1580537694.404,415044
1580537704.405,415044
1580537714.407,415044
1580537724.407,415045
1580537734.404,415045
1580537744.407,415046
1580537754.405,415046
1580537764.404,415046
1580537774.404,415046
1580537784.404,415047
1580537794.404,415047
1580537804.406,415048
1580537814.404,415048
1580537824.404,415048
1580537834.404,415049
1580537844.404,415049
1580537854.406,415051
1580537864.405,415051
1580537874.404,415051
1580537884.405,415051
1580537894.404,415052
1580537904.407,415053
1580537914.404,415054
1580537924.404,415055
1580537934.404,415055
1580537944.404,415055
1580537954.404,415055
1580537964.404,415056
1580537974.404,415056
1580537984.405,415056
1580537994.406,415056
1580538004.404,415058
1580538014.408,415058
1580538024.404,415058
1580538034.404,415058
1580538044.404,415058
1580538054.404,415058
1580538064.406,415058
1580538074.404,415058
1580538084.405,415058
1580538094.404,415058
1580538104.404,415059
1580538114.404,415059
1580538124.404,415060
1580538134.404,415061
1580538144.404,415061
1580538154.404,415061
1580538164.404,415062
1580538174.405,415063
1580538184.404,415063
1580538194.404,415063
1580538204.404,415064
1580538214.404,415064
1580538224.404,415066
1580538234.405,415068
1580538244.404,415070
1580538254.406,415070
1580538264.406,415072
1580538274.405,415072
1580538284.406,415072
1580538294.405,415073
1580538304.404,415074
1580538314.404,415074
1580538324.404,415076
1580538334.405,415076
1580538344.404,415077
1580538354.404,415078
1580538364.404,415079
1580538374.404,415080
1580538384.405,415081
1580538394.404,415082
1580538404.404,415082
1580538414.404,415083
1580538424.404,415084
1580538434.404,415084
1580538444.404,415085
1580538454.404,415085
1580538464.404,415085
1580538474.405,415087
1580538484.404,415087
1580538494.404,415088
1580538504.405,415089
1580538514.406,415089
1580538524.405,415089
1580538534.404,415090
1580538544.405,415090
1580538554.406,415092
1580538564.404,415092
1580538574.404,415092
1580538584.407,415094
1580538594.404,415094
1580538604.404,415096
1580538614.404,415096
1580538624.404,415097
1580538634.404,415097
1580538644.404,415098
1580538654.404,415100
1580538664.404,415100
1580538674.404,415101
1580538684.404,415101
1580538694.404,415101
1580538704.405,415102
1580538714.408,415102
1580538724.408,415102
1580538734.404,415102
1580538744.404,415102
1580538754.404,415102
1580538764.405,415104
1580538774.404,415104
1580538784.404,415105
1580538794.404,415105
1580538804.404,415107
1580538814.404,415108
1580538824.404,415109
1580538834.404,415109
1580538844.404,415109
1580538854.404,415111
1580538864.404,415112
1580538874.404,415112
1580538884.404,415112
1580538894.404,415112
1580538904.404,415113
1580538914.405,415113
1580538924.404,415113
1580538934.404,415113
1580538944.405,415114
1580538954.404,415114
1580538964.404,415115
1580538974.404,415116
1580538984.404,415116
1580538994.405,415117
1580539004.404,415117
1580539014.406,415119
1580539024.404,415119
1580539034.405,415119
1580539044.404,415120
1580539054.404,415120
1580539064.404,415121
1580539074.404,415122
1580539084.404,415123
1580539094.407,415124
1580539104.405,415125
1580539114.404,415126
1580539124.407,415127
1580539134.404,415128
1580539144.405,415129
1580539154.404,415130
1580539164.404,415130
1580539174.404,415132
1580539184.404,415134
1580539194.404,415135
1580539204.404,415135
1580539214.407,415135
1580539224.405,415136
1580539234.405,415137
1580539244.404,415137
1580539254.404,415137
1580539264.405,415139
1580539274.404,415140
1580539284.404,415140
1580539294.405,415140
1580539304.404,415142
1580539314.404,415142
1580539324.404,415142
1580539334.404,415142
1580539344.404,415142
1580539354.404,415144
1580539364.404,415144
1580539374.406,415145
1580539384.404,415146
1580539394.404,415146
1580539404.404,415148
1580539414.404,415148
1580539424.404,415148
1580539434.404,415148
1580539444.404,415150
1580539454.404,415150
1580539464.404,415150
1580539474.404,415150
1580539484.404,415151
1580539494.404,415151
1580539504.404,415151
1580539514.404,415152
1580539524.404,415152
1580539534.404,415154
1580539544.404,415156
1580539554.404,415156
1580539564.406,415156
1580539574.404,415157
1580539584.404,415158
1580539594.404,415158
1580539604.404,415159
1580539614.404,415160
1580539624.404,415160
1580539634.404,415160
1580539644.404,415161
1580539654.404,415163
1580539664.404,415163
1580539674.405,415166
1580539684.404,415167
1580539694.404,415167
1580539704.404,415168
1580539714.405,415169
1580539724.405,415170
1580539734.404,415170
1580539744.404,415172
1580539754.404,415172
1580539764.405,415174
1580539774.404,415174
1580539784.404,415175
1580539794.404,415176
1580539804.404,415176
1580539814.405,415176
1580539824.406,415177
1580539834.405,415178
1580539844.404,415179
1580539854.404,415179
1580539864.404,415180
1580539874.404,415180
1580539884.404,415180
1580539894.404,415180
1580539904.404,415180
1580539914.405,415180
1580539924.404,415180
1580539934.404,415180
1580539944.404,415181
1580539954.404,415181
1580539964.404,415182
1580539974.405,415182
1580539984.404,415183
1580539994.404,415183
1580540004.406,415183
1580540014.404,415184
1580540024.404,415184
1580540034.404,415184
1580540044.404,415186
1580540054.405,415186
1580540064.404,415187
1580540074.404,415187
1580540084.407,415188
1580540094.405,415188
1580540104.404,415189
1580540114.404,415189
1580540124.404,415190
1580540134.405,415192
1580540144.404,415193
1580540154.404,415195
1580540164.404,415196
1580540174.404,415196
1580540184.404,415197
1580540194.404,415198
1580540204.404,415199
1580540214.404,415200
1580540224.406,415200
1580540234.404,415200
1580540244.405,415200
1580540254.404,415200
1580540264.404,415202
1580540274.404,415203
1580540284.404,415204
1580540294.406,415204
1580540304.404,415205
1580540314.404,415206
1580540324.404,415206
1580540334.404,415207
1580540344.404,415208
1580540354.404,415208
1580540364.404,415208
1580540374.404,415209
1580540384.404,415210
1580540394.404,415210
1580540404.406,415211
1580540414.404,415211
1580540424.404,415211
1580540434.407,415211
1580540444.405,415212
1580540454.405,415212
1580540464.404,415212
1580540474.404,415212
1580540484.404,415213
1580540494.405,415214
1580540504.404,415214
1580540514.406,415215
1580540524.404,415215
1580540534.407,415218
1580540544.406,415220
1580540554.404,415221
1580540564.404,415223
1580540574.407,415223
1580540584.404,415223
1580540594.404,415223
1580540604.404,415224
1580540614.404,415224
1580540624.404,415224
1580540634.404,415224
1580540644.405,415229
1580540654.404,415229
1580540664.405,415230
1580540674.404,415231
1580540684.405,415231
1580540694.404,415232
1580540704.404,415232
1580540714.404,415233
1580540724.404,415233
1580540734.404,415233
1580540744.404,415234
1580540754.404,415236
1580540764.404,415236
1580540774.404,415236
1580540784.404,415238
1580540794.404,415239
1580540804.404,415239
1580540814.404,415240
1580540824.404,415240
1580540834.404,415240
1580540844.408,415241
1580540854.404,415241
1580540864.404,415242
1580540874.404,415244
1580540884.404,415245
1580540894.404,415245
1580540904.404,415245
1580540914.404,415246
1580540924.406,415247
1580540934.406,415248
1580540944.404,415248
1580540954.405,415249
1580540964.404,415250
1580540974.404,415251
1580540984.404,415251
1580540994.404,415252
1580541004.404,415254
1580541014.404,415254
1580541024.404,415256
1580541034.404,415256
1580541044.405,415256
1580541054.404,415256
1580541064.404,415256
1580541074.404,415256
1580541084.404,415256
1580541094.404,415256
1580541104.405,415256
1580541114.404,415257
1580541124.404,415258
1580541134.407,415258
1580541144.404,415259
1580541154.404,415259
1580541164.404,415260
1580541174.404,415260
1580541184.404,415262
1580541194.404,415262
1580541204.404,415263
1580541214.408,415264
1580541224.404,415266
1580541234.405,415266
1580541244.404,415268
1580541254.404,415268
1580541264.404,415268
1580541274.404,415269
1580541284.404,415269
1580541294.404,415270
1580541304.404,415270
1580541314.404,415270
1580541324.405,415270
1580541334.407,415270
1580541344.404,415271
1580541354.404,415272
1580541364.404,415273
1580541374.404,415273
1580541384.404,415273
1580541394.404,415273
1580541404.404,415273
1580541414.404,415274
1580541424.404,415275
1580541434.404,415275
1580541444.404,415275
1580541454.405,415275
1580541464.404,415276
1580541474.404,415276
1580541484.404,415277
1580541494.404,415278
1580541504.404,415280
1580541514.405,415281
1580541524.404,415281
1580541534.404,415281
1580541544.404,415282
1580541554.404,415283
1580541564.404,415285
1580541574.407,415285
1580541584.404,415285
1580541594.404,415286
1580541604.407,415288
1580541614.404,415288
1580541624.405,415288
1580541634.404,415289
1580541644.404,415289
1580541654.405,415291
1580541664.405,415292
1580541674.405,415293
1580541684.404,415295
1580541694.404,415295
1580541704.405,415295
1580541714.404,415298
1580541724.405,415299
1580541734.404,415299
1580541744.404,415301
1580541754.404,415301
1580541764.404,415302
1580541774.404,415303
1580541784.404,415303
1580541794.404,415303
1580541804.404,415303
1580541814.404,415304
1580541824.404,415304
1580541834.404,415306
1580541844.404,415306
1580541854.404,415306
1580541864.404,415307
1580541874.404,415308
1580541884.404,415308
1580541894.405,415308
1580541904.406,415310
1580541914.404,415310
1580541924.404,415313
1580541934.409,415313
1580541944.404,415313
1580541954.404,415314
1580541964.404,415314
1580541974.407,415314
1580541984.404,415317
1580541994.404,415318
1580542004.405,415318
1580542014.404,415318
1580542024.404,415318
1580542034.405,415318
1580542044.404,415319
1580542054.404,415320
1580542064.404,415320
1580542074.405,415320
1580542084.407,415320
1580542094.406,415321
1580542104.404,415322
1580542114.404,415322
1580542124.405,415324
1580542134.404,415324
1580542144.404,415324
1580542154.406,415324
1580542164.404,415325
1580542174.404,415326
1580542184.406,415326
1580542194.404,415328
1580542204.404,415328
1580542214.405,415328
1580542224.404,415330
1580542234.404,415330
1580542244.404,415330
1580542254.404,415332
1580542264.406,415333
1580542274.404,415333
1580542284.404,415334
1580542294.404,415335
1580542304.404,415335
1580542314.404,415335
1580542324.405,415336
1580542334.404,415336
1580542344.404,415337
1580542354.404,415337
1580542364.404,415338
1580542374.404,415339
1580542384.404,415339
1580542394.404,415342
1580542404.404,415344
1580542414.405,415344
1580542424.404,415346
1580542434.405,415346
1580542444.404,415346
1580542454.404,415346
1580542464.404,415346
1580542474.404,415346
1580542484.404,415347
1580542494.404,415348
1580542504.404,415348
1580542514.405,415349
1580542524.404,415349
1580542534.404,415350
1580542544.404,415350
1580542554.406,415351
1580542564.404,415353
1580542574.404,415353
1580542584.404,415354
1580542594.404,415354
