epoch,value
1579936775.409,0
1579936785.409,0
1579936795.409,6
1579936805.409,7
1579936815.409,8
1579936825.409,29
1579936835.409,30
1579936845.409,31
1579936855.409,32
1579936865.409,32
1579936875.409,33
1579936885.409,33
1579936895.409,34
1579936905.409,35
1579936915.409,35
1579936925.409,36
1579936935.409,36
1579936945.409,61
1579936955.409,83
1579936965.409,97
1579936975.409,98
1579936985.409,99
1579936995.409,100
1579937005.409,101
1579937015.409,125
1579937025.409,147
1579937035.409,147
1579937045.409,170
1579937055.409,195
1579937065.409,218
1579937075.409,241
1579937085.409,263
1579937095.409,263
1579937105.409,263
1579937115.409,263
1579937125.409,264
1579937135.409,264
1579937145.409,264
1579937155.409,264
1579937165.409,264
1579937175.409,264
1579937185.416,264
1579937195.409,264
1579937205.409,264
1579937215.409,264
1579937225.409,264
1579937235.409,264
1579937245.409,264
1579937255.409,264
1579937265.409,264
1579937275.409,264
1579937285.409,264
1579937295.409,264
1579937305.409,264
1579937315.409,264
1579937325.409,264
1579937335.409,264
1579937345.409,264
1579937355.409,264
1579937365.409,264
1579937375.411,264
1579937385.409,264
1579937395.409,265
1579937405.409,265
1579937415.409,265
1579937425.409,265
1579937435.409,265
1579937445.416,265
1579937455.409,265
1579937465.409,266
1579937475.409,266
1579937485.409,266
1579937495.409,266
1579937505.409,266
1579937515.409,266
1579937525.409,266
1579937535.416,267
1579937545.409,267
1579937555.409,267
1579937565.409,267
1579937575.409,267
1579937585.416,267
1579937595.409,267
1579937605.409,267
1579937615.409,267
1579937625.409,267
1579937635.409,267
1579937645.409,267
1579937655.409,267
1579937665.409,267
1579937675.409,267
1579937685.409,267
1579937695.409,267
1579937705.409,267
1579937715.409,267
1579937725.409,267
1579937735.409,267
1579937745.409,267
1579937755.409,267
1579937765.409,267
1579937775.409,267
1579937785.409,267
1579937795.416,267
1579937805.409,267
1579937815.409,267
1579937825.409,267
1579937835.409,267
1579937845.409,267
1579937855.409,267
1579937865.409,267
1579937875.409,267
1579937885.413,267
1579937895.409,267
1579937905.409,267
1579937915.415,267
1579937925.409,267
1579937935.409,267
1579937945.409,267
1579937955.409,267
1579937965.409,267
1579937975.409,267
1579937985.409,267
1579937995.409,267
1579938005.409,267
1579938015.409,267
1579938025.409,267
1579938035.409,267
1579938045.409,268
1579938055.409,268
1579938065.409,268
1579938075.409,268
1579938085.409,268
1579938095.409,268
1579938105.409,268
1579938115.409,268
1579938125.409,268
1579938135.409,268
1579938145.409,268
1579938155.409,268
1579938165.411,268
1579938175.410,269
1579938185.409,269
1579938195.409,269
1579938205.409,269
1579938215.409,269
1579938225.409,269
1579938235.409,270
1579938245.416,270
1579938255.409,270
1579938265.409,270
1579938275.409,270
1579938285.409,270
1579938295.409,270
1579938305.409,270
1579938315.409,270
1579938325.409,270
1579938335.409,270
1579938345.409,270
1579938355.409,270
1579938365.409,270
1579938375.409,270
1579938385.409,270
1579938395.409,270
1579938405.409,270
1579938415.409,270
1579938425.409,270
1579938435.409,270
1579938445.409,270
1579938455.409,271
1579938465.409,271
1579938475.409,271
1579938485.409,271
1579938495.409,271
1579938505.409,271
1579938515.409,271
1579938525.409,271
1579938535.409,272
1579938545.409,272
1579938555.409,272
1579938565.409,272
1579938575.409,272
1579938585.409,272
1579938595.409,272
1579938605.409,272
1579938615.409,272
1579938625.409,272
1579938635.409,272
1579938645.409,272
1579938655.409,272
1579938665.409,272
1579938675.409,272
1579938685.409,272
1579938695.409,272
1579938705.409,272
1579938715.409,272
1579938725.409,272
1579938735.409,272
1579938745.409,273
1579938755.409,273
1579938765.409,273
1579938775.409,273
1579938785.409,273
1579938795.409,273
1579938805.409,273
1579938815.409,273
1579938825.409,273
1579938835.409,273
1579938845.409,273
1579938855.409,273
1579938865.409,273
1579938875.409,273
1579938885.409,273
1579938895.409,273
1579938905.409,273
1579938915.409,273
1579938925.409,273
1579938935.409,273
1579938945.409,273
1579938955.409,273
1579938965.409,273
1579938975.409,273
1579938985.409,273
1579938995.409,273
1579939005.409,273
1579939015.409,273
1579939025.409,273
1579939035.409,273
1579939045.409,273
1579939055.409,273
1579939065.409,273
1579939075.409,273
1579939085.409,273
1579939095.409,273
1579939105.409,273
1579939115.409,273
1579939125.409,273
1579939135.409,273
1579939145.409,273
1579939155.409,274
1579939165.409,274
1579939175.409,274
1579939185.409,274
1579939195.409,274
1579939205.409,274
1579939215.409,274
1579939225.409,274
1579939235.413,274
1579939245.409,274
1579939255.409,274
1579939265.409,274
1579939275.409,274
1579939285.409,274
1579939295.409,274
1579939305.409,274
1579939315.409,274
1579939325.409,274
1579939335.409,274
1579939345.409,274
1579939355.409,274
1579939365.409,274
1579939375.409,274
1579939385.409,274
1579939395.409,274
1579939405.409,274
1579939415.409,274
1579939425.409,274
1579939435.413,274
1579939445.409,274
1579939455.409,274
1579939465.409,274
1579939475.409,274
1579939485.409,274
1579939495.409,274
