epoch,value
1580471062.470,411266
1580471072.451,411266
1580471082.452,411266
1580471092.451,411267
1580471102.451,411268
1580471112.452,411270
1580471122.452,411271
1580471132.451,411271
1580471142.452,411272
1580471152.451,411272
1580471162.452,411272
1580471172.451,411272
1580471182.451,411272
1580471192.451,411272
1580471202.451,411272
1580471212.451,411272
1580471222.451,411273
1580471232.452,411273
1580471242.451,411273
1580471252.451,411274
1580471262.451,411274
1580471272.456,411274
1580471282.451,411275
1580471292.452,411275
1580471302.451,411276
1580471312.456,411276
1580471322.452,411277
1580471332.452,411277
1580471342.452,411278
1580471352.452,411279
1580471362.451,411279
1580471372.451,411279
1580471382.451,411279
1580471392.451,411280
1580471402.452,411280
1580471412.452,411281
1580471422.451,411282
1580471432.451,411282
1580471442.451,411282
1580471452.451,411282
1580471462.451,411283
1580471472.452,411283
1580471482.451,411284
1580471492.451,411284
1580471502.451,411285
1580471512.451,411288
1580471522.451,411288
1580471532.451,411289
1580471542.451,411290
1580471552.451,411290
1580471562.451,411290
1580471572.452,411290
1580471582.452,411292
1580471592.451,411292
1580471602.451,411292
1580471612.451,411292
1580471622.451,411293
1580471632.451,411296
1580471642.453,411296
1580471652.451,411296
1580471662.452,411296
1580471672.452,411296
1580471682.451,411296
1580471692.452,411298
1580471702.451,411298
1580471712.451,411298
1580471722.451,411298
1580471732.451,411298
1580471742.451,411298
1580471752.452,411300
1580471762.451,411300
1580471772.451,411300
1580471782.451,411300
1580471792.451,411300
1580471802.451,411301
1580471812.451,411301
1580471822.451,411301
1580471832.451,411301
1580471842.451,411301
1580471852.452,411302
1580471862.451,411302
1580471872.451,411304
1580471882.451,411304
1580471892.451,411304
1580471902.451,411304
1580471912.451,411304
1580471922.451,411305
1580471932.451,411305
1580471942.451,411306
1580471952.453,411306
1580471962.452,411306
1580471972.451,411306
1580471982.451,411306
1580471992.452,411306
1580472002.451,411307
1580472012.452,411308
1580472022.451,411308
1580472032.451,411308
1580472042.451,411309
1580472052.452,411309
1580472062.451,411309
1580472072.451,411309
1580472082.451,411309
1580472092.451,411310
1580472102.452,411311
1580472112.451,411312
1580472122.452,411312
1580472132.451,411312
1580472142.454,411312
1580472152.451,411313
1580472162.451,411313
1580472172.451,411314
1580472182.451,411314
1580472192.451,411317
1580472202.451,411317
1580472212.452,411317
1580472222.451,411318
1580472232.453,411318
1580472242.451,411319
1580472252.451,411319
1580472262.453,411319
1580472272.452,411319
1580472282.451,411320
1580472292.451,411320
1580472302.451,411320
1580472312.451,411320
1580472322.451,411321
1580472332.451,411322
1580472342.451,411322
1580472352.452,411322
1580472362.451,411323
1580472372.451,411324
1580472382.452,411324
1580472392.453,411324
1580472402.451,411325
1580472412.452,411325
1580472422.452,411325
1580472432.451,411326
1580472442.453,411327
1580472452.451,411327
1580472462.451,411327
1580472472.454,411328
1580472482.451,411329
1580472492.451,411330
1580472502.451,411330
1580472512.451,411331
1580472522.451,411332
1580472532.451,411332
1580472542.451,411334
1580472552.451,411334
1580472562.451,411334
1580472572.451,411336
1580472582.451,411337
1580472592.451,411337
1580472602.451,411338
1580472612.451,411340
1580472622.451,411341
