epoch,value
1580543461.203,415415
1580543471.180,415415
1580543481.179,415416
1580543491.179,415416
1580543501.179,415417
1580543511.179,415418
1580543521.180,415418
1580543531.180,415418
1580543541.181,415418
1580543551.179,415420
1580543561.180,415420
1580543571.179,415420
1580543581.180,415421
1580543591.181,415421
1580543601.179,415422
1580543611.179,415422
1580543621.179,415422
1580543631.180,415422
1580543641.182,415422
1580543651.179,415422
1580543661.179,415424
1580543671.179,415425
1580543681.179,415425
1580543691.179,415426
1580543701.179,415426
1580543711.179,415428
1580543721.179,415429
1580543731.181,415429
1580543741.180,415429
1580543751.179,415430
1580543761.179,415430
1580543771.181,415430
1580543781.179,415431
1580543791.179,415431
1580543801.179,415432
1580543811.179,415432
1580543821.179,415433
1580543831.180,415433
1580543841.180,415433
1580543851.181,415434
1580543861.179,415434
1580543871.179,415434
1580543881.179,415434
1580543891.182,415434
1580543901.179,415436
1580543911.179,415436
1580543921.180,415436
1580543931.179,415437
1580543941.179,415437
1580543951.180,415437
1580543961.179,415438
1580543971.180,415438
1580543981.179,415438
1580543991.179,415438
1580544001.179,415438
1580544011.180,415438
1580544021.179,415439
1580544031.179,415439
1580544041.180,415439
1580544051.179,415440
1580544061.180,415440
1580544071.179,415441
1580544081.179,415443
1580544091.179,415443
1580544101.179,415443
1580544111.180,415444
1580544121.179,415444
1580544131.179,415446
1580544141.179,415446
1580544151.179,415447
1580544161.179,415448
1580544171.180,415449
1580544181.179,415450
1580544191.179,415451
1580544201.180,415451
1580544211.179,415451
1580544221.179,415452
1580544231.179,415454
1580544241.180,415454
1580544251.179,415454
1580544261.179,415454
1580544271.179,415454
1580544281.180,415456
1580544291.180,415458
1580544301.179,415458
1580544311.179,415458
1580544321.179,415458
1580544331.179,415459
1580544341.179,415460
1580544351.179,415460
1580544361.179,415461
1580544371.180,415461
1580544381.179,415462
1580544391.179,415463
1580544401.180,415464
1580544411.180,415466
1580544421.179,415467
1580544431.181,415467
1580544441.180,415468
1580544451.179,415468
1580544461.179,415469
1580544471.179,415469
1580544481.180,415470
1580544491.179,415470
1580544501.180,415470
1580544511.180,415470
1580544521.182,415470
1580544531.183,415470
1580544541.181,415470
1580544551.179,415472
1580544561.179,415474
1580544571.179,415474
1580544581.181,415474
1580544591.179,415474
1580544601.179,415475
1580544611.179,415476
1580544621.183,415476
1580544631.179,415477
1580544641.179,415479
1580544651.179,415479
1580544661.179,415480
1580544671.180,415480
1580544681.179,415481
1580544691.179,415483
1580544701.179,415483
1580544711.181,415483
1580544721.179,415483
1580544731.181,415483
1580544741.179,415484
1580544751.179,415485
1580544761.179,415485
1580544771.179,415486
1580544781.179,415486
1580544791.179,415486
1580544801.179,415486
1580544811.180,415488
1580544821.180,415489
1580544831.179,415490
1580544841.179,415490
1580544851.179,415491
1580544861.179,415492
1580544871.180,415492
1580544881.179,415492
1580544891.180,415493
1580544901.179,415494
1580544911.180,415495
1580544921.179,415496
1580544931.179,415496
1580544941.180,415496
1580544951.180,415497
1580544961.179,415497
1580544971.181,415498
1580544981.179,415500
1580544991.179,415500
1580545001.179,415500
1580545011.179,415500
1580545021.179,415500
1580545031.179,415501
1580545041.179,415502
1580545051.179,415502
1580545061.179,415502
1580545071.181,415503
1580545081.179,415504
1580545091.179,415505
1580545101.179,415505
1580545111.180,415505
1580545121.179,415506
1580545131.179,415506
1580545141.179,415506
1580545151.180,415508
1580545161.179,415509
1580545171.179,415510
1580545181.180,415510
1580545191.179,415510
1580545201.180,415510
1580545211.181,415510
1580545221.179,415511
1580545231.179,415512
1580545241.180,415512
1580545251.179,415512
1580545261.179,415513
1580545271.179,415514
1580545281.180,415516
1580545291.179,415516
1580545301.179,415516
1580545311.182,415516
1580545321.180,415517
1580545331.180,415517
1580545341.179,415518
1580545351.179,415520
1580545361.179,415520
1580545371.179,415520
1580545381.179,415521
1580545391.180,415521
1580545401.180,415521
1580545411.181,415521
1580545421.180,415521
1580545431.181,415521
1580545441.179,415522
1580545451.179,415523
1580545461.179,415523
1580545471.179,415523
1580545481.179,415525
1580545491.179,415525
1580545501.179,415525
1580545511.181,415525
1580545521.181,415528
1580545531.179,415529
1580545541.180,415529
1580545551.179,415532
1580545561.180,415532
1580545571.179,415532
1580545581.179,415533
1580545591.179,415534
1580545601.179,415534
1580545611.179,415534
1580545621.179,415535
1580545631.180,415536
1580545641.179,415538
1580545651.179,415538
1580545661.181,415539
1580545671.179,415539
1580545681.179,415540
1580545691.179,415540
1580545701.179,415543
1580545711.179,415543
1580545721.179,415544
1580545731.180,415544
1580545741.181,415546
1580545751.182,415546
1580545761.179,415546
1580545771.179,415547
1580545781.180,415548
1580545791.180,415549
1580545801.180,415550
1580545811.179,415550
1580545821.179,415552
1580545831.179,415554
1580545841.179,415554
1580545851.179,415556
1580545861.179,415556
1580545871.179,415556
1580545881.179,415558
1580545891.180,415558
1580545901.179,415558
1580545911.182,415558
1580545921.179,415558
1580545931.182,415559
1580545941.180,415560
1580545951.179,415561
1580545961.179,415561
1580545971.179,415562
1580545981.180,415562
1580545991.180,415562
1580546001.179,415564
1580546011.180,415564
1580546021.179,415565
1580546031.179,415565
1580546041.180,415565
1580546051.180,415567
1580546061.180,415567
1580546071.179,415567
1580546081.180,415568
1580546091.179,415568
1580546101.181,415569
1580546111.179,415569
1580546121.181,415571
1580546131.179,415571
1580546141.179,415572
1580546151.180,415572
1580546161.179,415572
1580546171.181,415573
1580546181.180,415573
1580546191.179,415573
1580546201.180,415573
1580546211.179,415573
1580546221.179,415573
1580546231.179,415574
1580546241.182,415575
1580546251.179,415576
1580546261.179,415578
1580546271.179,415578
1580546281.179,415578
1580546291.179,415578
1580546301.180,415578
1580546311.179,415578
1580546321.179,415580
1580546331.180,415580
1580546341.180,415580
1580546351.179,415582
1580546361.179,415583
1580546371.179,415584
1580546381.179,415584
1580546391.179,415584
1580546401.180,415584
1580546411.179,415584
1580546421.180,415585
1580546431.179,415586
1580546441.180,415587
1580546451.179,415588
1580546461.181,415588
1580546471.182,415588
1580546481.179,415590
1580546491.180,415590
1580546501.182,415591
1580546511.180,415591
1580546521.179,415591
1580546531.179,415592
1580546541.179,415594
1580546551.179,415594
1580546561.179,415595
1580546571.179,415596
1580546581.179,415596
1580546591.180,415598
1580546601.180,415598
1580546611.179,415598
1580546621.179,415598
1580546631.179,415598
1580546641.179,415600
1580546651.179,415601
1580546661.179,415601
1580546671.179,415602
1580546681.179,415603
1580546691.180,415603
1580546701.179,415604
1580546711.179,415604
1580546721.179,415606
1580546731.180,415606
1580546741.182,415606
1580546751.179,415606
1580546761.181,415608
1580546771.179,415610
1580546781.179,415611
1580546791.179,415611
1580546801.179,415613
1580546811.179,415614
1580546821.180,415614
1580546831.181,415616
1580546841.179,415616
1580546851.180,415617
1580546861.179,415618
1580546871.180,415618
1580546881.180,415618
1580546891.179,415618
1580546901.179,415620
1580546911.179,415620
1580546921.179,415621
1580546931.180,415622
1580546941.181,415622
1580546951.179,415622
1580546961.180,415622
1580546971.179,415622
1580546981.179,415622
1580546991.179,415622
1580547001.179,415623
1580547011.180,415625
1580547021.179,415625
1580547031.179,415625
1580547041.179,415625
1580547051.179,415626
1580547061.179,415626
1580547071.179,415626
1580547081.179,415627
1580547091.179,415628
1580547101.180,415631
1580547111.180,415632
1580547121.181,415632
1580547131.179,415633
1580547141.179,415634
1580547151.180,415636
1580547161.179,415638
1580547171.179,415639
1580547181.179,415640
1580547191.179,415641
1580547201.179,415642
1580547211.179,415642
1580547221.181,415643
1580547231.180,415643
1580547241.179,415643
1580547251.181,415645
1580547261.179,415646
1580547271.179,415646
1580547281.179,415647
1580547291.179,415648
1580547301.180,415649
1580547311.179,415650
1580547321.180,415650
1580547331.179,415651
1580547341.182,415651
1580547351.179,415653
1580547361.180,415654
1580547371.182,415654
1580547381.181,415656
1580547391.180,415656
1580547401.179,415656
1580547411.179,415656
1580547421.179,415657
1580547431.180,415657
1580547441.179,415659
1580547451.179,415659
1580547461.179,415659
1580547471.179,415661
1580547481.179,415662
1580547491.179,415662
1580547501.179,415664
1580547511.180,415665
1580547521.179,415665
1580547531.179,415665
1580547541.180,415667
1580547551.180,415667
1580547561.179,415668
1580547571.179,415670
1580547581.179,415672
1580547591.179,415672
1580547601.180,415673
1580547611.179,415673
1580547621.179,415674
1580547631.180,415674
1580547641.179,415675
1580547651.179,415675
1580547661.179,415675
1580547671.179,415676
1580547681.179,415676
1580547691.179,415677
1580547701.179,415679
1580547711.179,415679
1580547721.179,415680
1580547731.179,415680
1580547741.181,415681
1580547751.179,415681
1580547761.180,415681
1580547771.180,415682
1580547781.180,415682
1580547791.179,415682
1580547801.180,415682
1580547811.179,415682
1580547821.180,415683
1580547831.181,415683
1580547841.179,415683
1580547851.179,415685
1580547861.180,415686
1580547871.179,415686
1580547881.179,415686
1580547891.181,415686
1580547901.179,415687
1580547911.179,415687
1580547921.179,415688
1580547931.179,415688
1580547941.180,415690
1580547951.179,415690
1580547961.179,415690
1580547971.180,415692
1580547981.179,415692
1580547991.180,415692
1580548001.182,415694
1580548011.180,415695
1580548021.179,415695
1580548031.179,415696
1580548041.180,415698
1580548051.179,415698
1580548061.179,415698
1580548071.179,415699
1580548081.179,415700
1580548091.179,415700
1580548101.179,415701
1580548111.179,415701
1580548121.180,415702
1580548131.179,415702
1580548141.180,415704
1580548151.179,415704
1580548161.179,415705
1580548171.179,415705
1580548181.179,415706
1580548191.179,415707
1580548201.179,415707
1580548211.180,415707
1580548221.179,415708
1580548231.179,415708
1580548241.180,415709
1580548251.179,415710
1580548261.179,415710
1580548271.179,415711
1580548281.179,415712
1580548291.179,415713
1580548301.181,415714
1580548311.182,415716
1580548321.181,415716
1580548331.179,415716
1580548341.182,415717
1580548351.181,415718
1580548361.180,415718
1580548371.181,415718
1580548381.179,415720
1580548391.179,415720
1580548401.179,415720
1580548411.179,415720
1580548421.180,415722
1580548431.179,415722
1580548441.179,415723
1580548451.179,415723
1580548461.180,415723
1580548471.179,415724
1580548481.179,415724
1580548491.181,415724
1580548501.179,415724
1580548511.179,415724
1580548521.180,415726
1580548531.179,415726
1580548541.180,415726
1580548551.179,415728
1580548561.182,415730
1580548571.181,415731
1580548581.179,415731
1580548591.179,415731
1580548601.179,415731
1580548611.179,415732
1580548621.179,415732
1580548631.179,415732
1580548641.179,415732
1580548651.179,415734
1580548661.179,415734
1580548671.179,415736
1580548681.179,415738
1580548691.180,415739
1580548701.180,415740
1580548711.179,415740
1580548721.180,415742
1580548731.179,415742
1580548741.179,415742
1580548751.180,415743
1580548761.179,415743
1580548771.180,415744
1580548781.179,415744
1580548791.179,415746
1580548801.179,415746
1580548811.179,415747
1580548821.180,415748
1580548831.179,415749
1580548841.179,415751
1580548851.179,415752
1580548861.179,415752
1580548871.180,415753
1580548881.179,415753
1580548891.180,415755
1580548901.179,415758
1580548911.179,415758
1580548921.179,415759
1580548931.179,415761
1580548941.180,415763
1580548951.182,415764
1580548961.180,415765
1580548971.180,415766
1580548981.179,415767
1580548991.179,415768
1580549001.180,415769
1580549011.181,415769
1580549021.179,415770
1580549031.179,415771
1580549041.179,415773
1580549051.179,415774
1580549061.179,415774
1580549071.179,415775
1580549081.181,415775
1580549091.179,415776
1580549101.180,415778
1580549111.179,415779
1580549121.179,415780
1580549131.180,415780
1580549141.180,415780
1580549151.180,415781
1580549161.179,415781
1580549171.179,415782
1580549181.179,415782
1580549191.179,415783
1580549201.179,415783
1580549211.179,415783
1580549221.179,415783
1580549231.179,415783
1580549241.179,415783
1580549251.181,415784
1580549261.180,415785
1580549271.180,415786
1580549281.179,415786
1580549291.179,415788
1580549301.179,415788
1580549311.179,415788
1580549321.179,415790
1580549331.179,415791
1580549341.179,415791
1580549351.179,415792
1580549361.179,415792
1580549371.180,415792
1580549381.180,415793
1580549391.179,415793
1580549401.181,415794
1580549411.180,415794
1580549421.179,415795
1580549431.179,415795
1580549441.179,415796
1580549451.179,415796
1580549461.179,415796
1580549471.180,415798
1580549481.180,415798
1580549491.179,415799
1580549501.180,415799
1580549511.180,415799
1580549521.179,415799
1580549531.179,415799
1580549541.179,415800
1580549551.179,415800
1580549561.179,415801
1580549571.179,415801
1580549581.179,415802
1580549591.179,415803
1580549601.179,415803
1580549611.180,415804
1580549621.180,415804
1580549631.179,415804
1580549641.179,415805
1580549651.179,415805
1580549661.179,415805
1580549671.182,415806
1580549681.180,415806
1580549691.179,415806
1580549701.181,415806
1580549711.179,415806
1580549721.179,415807
1580549731.179,415807
1580549741.179,415807
1580549751.179,415808
1580549761.179,415808
1580549771.179,415808
1580549781.179,415810
1580549791.179,415810
1580549801.179,415810
1580549811.179,415811
1580549821.179,415812
1580549831.180,415814
1580549841.181,415814
1580549851.179,415814
1580549861.179,415814
1580549871.179,415816
1580549881.179,415816
1580549891.179,415816
1580549901.179,415817
1580549911.180,415818
1580549921.180,415820
1580549931.179,415820
1580549941.179,415820
1580549951.180,415822
1580549961.179,415823
1580549971.179,415824
1580549981.180,415824
1580549991.179,415824
1580550001.180,415824
1580550011.179,415826
1580550021.179,415826
1580550031.179,415826
1580550041.179,415826
1580550051.180,415828
1580550061.179,415828
1580550071.179,415829
1580550081.179,415829
1580550091.182,415829
1580550101.179,415831
1580550111.181,415831
1580550121.179,415832
1580550131.179,415832
1580550141.179,415832
1580550151.179,415833
1580550161.179,415833
1580550171.179,415834
1580550181.179,415834
1580550191.180,415835
1580550201.181,415835
1580550211.180,415836
1580550221.180,415836
1580550231.179,415838
1580550241.180,415839
1580550251.179,415840
1580550261.179,415840
1580550271.179,415842
1580550281.179,415842
1580550291.182,415842
1580550301.179,415842
1580550311.179,415844
1580550321.182,415844
1580550331.179,415845
1580550341.180,415845
1580550351.179,415845
1580550361.179,415846
1580550371.180,415846
1580550381.179,415846
1580550391.180,415847
1580550401.180,415848
1580550411.179,415848
1580550421.184,415848
1580550431.179,415849
1580550441.179,415850
1580550451.179,415850
1580550461.179,415852
1580550471.179,415854
1580550481.179,415854
1580550491.179,415856
1580550501.180,415857
1580550511.181,415858
1580550521.179,415859
1580550531.179,415860
1580550541.179,415861
1580550551.179,415862
1580550561.179,415862
1580550571.182,415862
1580550581.181,415862
1580550591.179,415864
1580550601.179,415865
1580550611.180,415867
1580550621.180,415868
1580550631.179,415868
1580550641.179,415868
1580550651.179,415869
1580550661.179,415869
1580550671.179,415871
1580550681.179,415871
1580550691.179,415871
1580550701.179,415872
1580550711.179,415873
1580550721.179,415873
1580550731.181,415874
1580550741.183,415874
1580550751.180,415875
1580550761.180,415875
1580550771.179,415875
1580550781.179,415875
1580550791.179,415876
1580550801.179,415876
1580550811.179,415876
1580550821.179,415877
1580550831.179,415879
1580550841.179,415879
1580550851.180,415880
1580550861.179,415882
1580550871.180,415882
1580550881.179,415883
1580550891.179,415883
1580550901.179,415884
1580550911.179,415884
1580550921.179,415886
1580550931.179,415886
1580550941.179,415889
1580550951.180,415889
1580550961.180,415889
1580550971.182,415891
1580550981.179,415891
1580550991.179,415892
1580551001.180,415892
1580551011.182,415894
1580551021.179,415897
1580551031.181,415897
1580551041.179,415897
1580551051.179,415898
1580551061.182,415898
1580551071.180,415898
1580551081.179,415898
1580551091.179,415899
1580551101.180,415900
1580551111.179,415900
1580551121.179,415900
1580551131.179,415900
1580551141.179,415900
1580551151.180,415901
1580551161.179,415902
1580551171.179,415902
1580551181.179,415902
1580551191.179,415903
1580551201.180,415903
1580551211.182,415903
1580551221.179,415904
1580551231.179,415904
1580551241.179,415904
1580551251.179,415904
1580551261.181,415904
1580551271.179,415904
1580551281.179,415906
1580551291.181,415907
1580551301.179,415907
1580551311.179,415908
1580551321.180,415908
1580551331.179,415911
1580551341.179,415911
1580551351.179,415912
1580551361.181,415913
1580551371.179,415913
1580551381.179,415914
1580551391.180,415914
1580551401.179,415915
1580551411.180,415915
1580551421.179,415916
1580551431.180,415916
1580551441.179,415916
1580551451.180,415917
1580551461.179,415917
1580551471.179,415918
1580551481.180,415918
1580551491.179,415919
1580551501.179,415919
1580551511.179,415920
1580551521.179,415920
1580551531.180,415920
1580551541.184,415923
1580551551.179,415923
1580551561.179,415923
1580551571.180,415924
1580551581.179,415925
1580551591.180,415925
1580551601.179,415926
1580551611.179,415926
1580551621.179,415926
