epoch,value
1580561521.335,416565
1580561531.317,416566
1580561541.314,416566
1580561551.314,416566
1580561561.314,416568
1580561571.315,416568
1580561581.314,416568
1580561591.314,416569
1580561601.314,416569
1580561611.314,416570
1580561621.314,416570
1580561631.314,416572
1580561641.314,416574
1580561651.315,416577
1580561661.314,416577
1580561671.315,416577
1580561681.314,416578
1580561691.314,416579
1580561701.314,416579
1580561711.314,416580
1580561721.315,416580
1580561731.315,416580
1580561741.315,416580
1580561751.314,416581
1580561761.314,416581
1580561771.314,416581
1580561781.315,416583
1580561791.315,416583
1580561801.315,416583
1580561811.316,416584
1580561821.315,416585
1580561831.314,416585
1580561841.314,416585
1580561851.314,416585
1580561861.315,416586
1580561871.314,416586
1580561881.314,416587
1580561891.314,416588
1580561901.314,416588
1580561911.314,416588
1580561921.314,416589
1580561931.314,416589
1580561941.315,416590
1580561951.314,416590
1580561961.314,416590
1580561971.314,416590
1580561981.317,416590
1580561991.314,416590
1580562001.314,416591
1580562011.314,416592
1580562021.314,416592
1580562031.315,416594
1580562041.314,416595
1580562051.314,416595
1580562061.314,416595
1580562071.314,416597
1580562081.314,416598
1580562091.314,416598
1580562101.314,416598
1580562111.314,416598
1580562121.316,416598
1580562131.314,416599
1580562141.314,416603
1580562151.315,416603
1580562161.314,416604
1580562171.314,416604
1580562181.316,416604
1580562191.314,416606
1580562201.314,416606
1580562211.314,416608
1580562221.314,416609
1580562231.314,416610
1580562241.314,416610
1580562251.315,416610
1580562261.318,416610
1580562271.314,416610
1580562281.314,416612
1580562291.314,416612
1580562301.314,416613
1580562311.315,416614
1580562321.315,416614
1580562331.314,416614
1580562341.315,416614
1580562351.314,416614
1580562361.314,416614
1580562371.314,416616
1580562381.314,416617
1580562391.315,416618
1580562401.314,416618
1580562411.314,416618
1580562421.315,416618
1580562431.314,416618
1580562441.314,416618
1580562451.315,416621
1580562461.314,416621
1580562471.314,416621
1580562481.314,416621
1580562491.314,416622
1580562501.315,416622
1580562511.315,416625
1580562521.314,416625
1580562531.314,416626
1580562541.314,416627
1580562551.314,416627
1580562561.314,416628
1580562571.314,416629
1580562581.315,416629
1580562591.314,416629
1580562601.314,416629
1580562611.314,416629
1580562621.314,416630
1580562631.314,416630
1580562641.314,416631
1580562651.314,416631
1580562661.314,416631
1580562671.315,416632
1580562681.314,416632
1580562691.314,416632
1580562701.314,416632
1580562711.314,416632
1580562721.315,416632
1580562731.314,416632
1580562741.314,416633
1580562751.314,416633
1580562761.314,416633
1580562771.314,416633
1580562781.314,416633
1580562791.314,416633
1580562801.314,416634
1580562811.314,416634
1580562821.314,416634
1580562831.314,416634
1580562841.315,416634
1580562851.314,416636
1580562861.314,416637
1580562871.315,416638
1580562881.314,416639
1580562891.316,416639
1580562901.317,416640
1580562911.314,416642
1580562921.314,416642
1580562931.314,416643
1580562941.314,416643
1580562951.314,416643
1580562961.314,416645
1580562971.314,416647
1580562981.315,416647
1580562991.314,416649
1580563001.314,416650
1580563011.314,416650
1580563021.314,416650
1580563031.314,416650
1580563041.314,416650
1580563051.314,416651
1580563061.314,416651
1580563071.314,416652
1580563081.314,416652
1580563091.315,416652
1580563101.314,416652
1580563111.314,416652
1580563121.316,416652
1580563131.314,416653
1580563141.314,416654
1580563151.314,416654
1580563161.314,416654
1580563171.314,416654
1580563181.314,416654
1580563191.314,416654
1580563201.314,416654
1580563211.314,416656
1580563221.314,416658
1580563231.316,416660
1580563241.314,416661
1580563251.314,416662
1580563261.314,416662
1580563271.317,416664
1580563281.316,416665
1580563291.314,416666
1580563301.314,416666
1580563311.314,416666
1580563321.314,416668
1580563331.314,416668
1580563341.314,416670
1580563351.314,416670
1580563361.314,416672
1580563371.314,416673
1580563381.314,416673
1580563391.315,416673
1580563401.314,416674
1580563411.314,416675
1580563421.314,416675
1580563431.314,416675
1580563441.314,416675
1580563451.314,416676
1580563461.314,416677
1580563471.314,416677
1580563481.314,416677
1580563491.314,416679
1580563501.315,416680
1580563511.316,416680
1580563521.316,416682
1580563531.314,416683
1580563541.314,416684
1580563551.314,416684
1580563561.314,416685
1580563571.314,416686
1580563581.314,416686
1580563591.314,416686
1580563601.314,416688
1580563611.314,416688
1580563621.314,416689
1580563631.314,416689
1580563641.315,416689
1580563651.314,416689
1580563661.314,416691
1580563671.314,416692
1580563681.314,416692
1580563691.314,416692
1580563701.315,416693
1580563711.314,416695
1580563721.314,416696
1580563731.314,416696
1580563741.314,416696
1580563751.314,416698
1580563761.314,416699
1580563771.315,416699
1580563781.314,416700
1580563791.314,416701
1580563801.318,416702
1580563811.314,416703
1580563821.314,416703
1580563831.314,416706
1580563841.317,416706
1580563851.314,416706
1580563861.314,416708
1580563871.315,416708
1580563881.315,416708
1580563891.314,416708
1580563901.314,416710
1580563911.314,416710
1580563921.314,416710
1580563931.314,416710
1580563941.314,416712
1580563951.314,416712
1580563961.316,416712
1580563971.314,416713
1580563981.314,416713
1580563991.314,416713
1580564001.314,416714
1580564011.315,416714
1580564021.314,416716
1580564031.315,416716
1580564041.314,416716
1580564051.314,416717
1580564061.314,416717
1580564071.315,416718
1580564081.314,416718
1580564091.318,416718
1580564101.314,416719
1580564111.314,416719
1580564121.314,416720
1580564131.314,416721
1580564141.314,416721
1580564151.314,416722
1580564161.314,416724
1580564171.314,416724
1580564181.314,416724
1580564191.314,416725
1580564201.315,416726
1580564211.314,416726
1580564221.314,416728
1580564231.315,416728
1580564241.314,416730
1580564251.316,416730
1580564261.314,416731
1580564271.314,416732
1580564281.314,416732
1580564291.314,416732
1580564301.314,416733
1580564311.314,416733
1580564321.314,416734
1580564331.314,416735
1580564341.314,416736
1580564351.316,416736
1580564361.314,416736
1580564371.314,416737
1580564381.315,416738
1580564391.314,416738
1580564401.314,416739
1580564411.314,416740
1580564421.314,416741
1580564431.314,416741
1580564441.314,416741
1580564451.314,416741
1580564461.317,416742
1580564471.314,416743
1580564481.314,416743
1580564491.314,416744
1580564501.315,416744
1580564511.314,416744
1580564521.314,416746
1580564531.316,416746
1580564541.314,416746
1580564551.315,416746
1580564561.317,416748
1580564571.314,416748
1580564581.314,416749
1580564591.314,416750
1580564601.314,416751
1580564611.314,416751
1580564621.314,416751
1580564631.314,416752
1580564641.314,416752
1580564651.314,416753
1580564661.314,416754
1580564671.315,416754
1580564681.314,416754
1580564691.314,416754
1580564701.316,416755
1580564711.314,416755
1580564721.315,416756
1580564731.314,416756
1580564741.314,416756
1580564751.314,416758
1580564761.314,416758
1580564771.314,416759
1580564781.314,416760
1580564791.314,416760
1580564801.314,416760
1580564811.314,416761
1580564821.314,416761
1580564831.314,416761
1580564841.314,416762
1580564851.314,416762
1580564861.314,416762
1580564871.314,416762
1580564881.314,416764
1580564891.314,416764
1580564901.314,416764
1580564911.314,416765
1580564921.314,416766
1580564931.314,416766
1580564941.314,416766
1580564951.314,416766
1580564961.314,416767
1580564971.314,416767
1580564981.314,416768
1580564991.314,416768
1580565001.314,416768
1580565011.314,416770
1580565021.314,416770
1580565031.314,416770
1580565041.314,416770
1580565051.315,416771
1580565061.314,416771
1580565071.314,416772
1580565081.314,416772
1580565091.314,416773
1580565101.315,416774
1580565111.314,416774
1580565121.316,416776
1580565131.314,416777
1580565141.314,416777
1580565151.314,416777
1580565161.314,416777
1580565171.314,416777
1580565181.314,416778
1580565191.314,416780
1580565201.315,416780
1580565211.314,416780
1580565221.321,416781
1580565231.314,416782
1580565241.314,416782
1580565251.314,416782
1580565261.315,416782
1580565271.316,416782
1580565281.314,416783
1580565291.314,416784
1580565301.316,416784
1580565311.315,416784
1580565321.317,416786
1580565331.314,416786
1580565341.314,416786
1580565351.314,416786
1580565361.314,416787
1580565371.314,416788
1580565381.314,416788
1580565391.315,416788
1580565401.314,416790
1580565411.317,416791
1580565421.314,416791
1580565431.314,416791
1580565441.317,416792
1580565451.314,416792
1580565461.314,416793
1580565471.314,416793
1580565481.314,416795
1580565491.314,416796
1580565501.314,416796
1580565511.314,416798
1580565521.314,416798
1580565531.314,416798
1580565541.314,416799
1580565551.314,416799
1580565561.315,416799
1580565571.314,416800
1580565581.314,416800
1580565591.314,416800
1580565601.314,416801
1580565611.314,416802
1580565621.314,416803
1580565631.316,416804
1580565641.314,416806
1580565651.315,416806
1580565661.314,416807
1580565671.314,416807
1580565681.314,416807
1580565691.314,416807
1580565701.314,416810
1580565711.314,416810
1580565721.314,416811
1580565731.315,416811
1580565741.314,416811
1580565751.314,416813
1580565761.314,416813
1580565771.314,416814
1580565781.314,416814
1580565791.314,416814
1580565801.314,416816
1580565811.314,416816
1580565821.314,416817
1580565831.314,416817
1580565841.315,416818
1580565851.314,416818
1580565861.318,416818
1580565871.314,416818
1580565881.314,416818
1580565891.314,416820
1580565901.314,416821
1580565911.314,416821
1580565921.314,416821
1580565931.315,416823
1580565941.314,416823
1580565951.316,416823
1580565961.314,416823
1580565971.314,416824
1580565981.314,416824
1580565991.314,416824
1580566001.318,416824
1580566011.315,416826
1580566021.314,416826
1580566031.314,416826
1580566041.316,416826
1580566051.314,416826
1580566061.314,416826
1580566071.314,416826
1580566081.314,416826
1580566091.316,416827
1580566101.314,416829
1580566111.317,416830
1580566121.314,416830
1580566131.314,416830
1580566141.314,416831
1580566151.314,416831
1580566161.314,416831
1580566171.314,416832
1580566181.316,416832
1580566191.314,416833
1580566201.316,416835
1580566211.315,416836
1580566221.317,416838
1580566231.315,416839
1580566241.314,416839
1580566251.314,416839
1580566261.314,416840
1580566271.314,416842
1580566281.314,416842
1580566291.314,416842
1580566301.315,416844
1580566311.314,416845
1580566321.314,416845
1580566331.314,416845
1580566341.314,416845
1580566351.316,416846
1580566361.314,416846
1580566371.314,416846
1580566381.314,416847
1580566391.314,416848
1580566401.314,416849
1580566411.314,416849
1580566421.314,416849
1580566431.314,416850
1580566441.314,416851
1580566451.314,416851
1580566461.315,416851
1580566471.314,416852
1580566481.317,416854
1580566491.315,416855
1580566501.314,416857
1580566511.314,416858
1580566521.314,416858
1580566531.314,416860
1580566541.314,416860
1580566551.314,416860
1580566561.314,416861
1580566571.314,416862
1580566581.314,416863
1580566591.314,416864
1580566601.316,416865
1580566611.314,416866
1580566621.314,416867
1580566631.314,416867
1580566641.314,416868
1580566651.314,416868
1580566661.314,416869
1580566671.314,416870
1580566681.314,416871
1580566691.318,416871
1580566701.314,416871
1580566711.314,416872
1580566721.314,416872
1580566731.314,416873
1580566741.314,416874
1580566751.315,416875
1580566761.315,416875
1580566771.314,416876
1580566781.314,416876
1580566791.315,416877
1580566801.314,416877
1580566811.315,416878
1580566821.314,416878
1580566831.314,416880
1580566841.314,416880
1580566851.314,416881
1580566861.314,416882
1580566871.317,416882
1580566881.315,416882
1580566891.316,416883
1580566901.317,416883
1580566911.315,416884
1580566921.314,416884
1580566931.314,416885
1580566941.314,416885
1580566951.316,416887
1580566961.314,416887
1580566971.314,416888
1580566981.314,416889
1580566991.314,416889
1580567001.314,416889
1580567011.314,416890
1580567021.314,416890
1580567031.314,416890
1580567041.314,416892
1580567051.314,416894
1580567061.314,416894
1580567071.314,416896
1580567081.314,416896
1580567091.314,416896
1580567101.315,416896
1580567111.314,416897
1580567121.314,416897
1580567131.314,416898
1580567141.314,416901
1580567151.317,416902
1580567161.314,416903
1580567171.314,416903
1580567181.314,416903
1580567191.315,416904
1580567201.314,416904
1580567211.314,416905
1580567221.314,416906
1580567231.314,416906
1580567241.314,416906
1580567251.316,416907
1580567261.317,416907
1580567271.314,416907
1580567281.314,416908
1580567291.314,416908
1580567301.314,416909
1580567311.314,416909
1580567321.314,416910
1580567331.314,416911
1580567341.314,416911
1580567351.314,416911
1580567361.318,416912
1580567371.314,416913
1580567381.314,416913
1580567391.314,416914
1580567401.314,416914
1580567411.314,416914
1580567421.314,416915
1580567431.314,416915
1580567441.314,416915
1580567451.314,416915
1580567461.314,416915
1580567471.314,416917
1580567481.314,416917
1580567491.314,416918
1580567501.314,416918
1580567511.317,416918
1580567521.315,416920
1580567531.314,416920
1580567541.314,416921
1580567551.314,416921
1580567561.321,416921
1580567571.315,416921
1580567581.315,416921
1580567591.314,416921
1580567601.314,416922
1580567611.314,416923
1580567621.314,416923
1580567631.314,416924
1580567641.314,416924
1580567651.314,416925
1580567661.314,416925
1580567671.314,416926
1580567681.316,416928
1580567691.315,416928
1580567701.314,416928
1580567711.315,416929
1580567721.318,416929
1580567731.314,416930
1580567741.314,416930
1580567751.314,416930
1580567761.314,416930
1580567771.316,416931
1580567781.314,416932
1580567791.314,416934
1580567801.314,416934
1580567811.315,416935
1580567821.315,416936
1580567831.314,416936
1580567841.317,416936
1580567851.314,416938
1580567861.314,416938
1580567871.314,416938
1580567881.314,416938
1580567891.314,416938
1580567901.315,416939
1580567911.314,416939
1580567921.314,416940
1580567931.315,416940
1580567941.314,416942
1580567951.314,416942
1580567961.314,416942
1580567971.314,416944
1580567981.314,416944
1580567991.314,416944
1580568001.314,416945
1580568011.319,416945
1580568021.314,416946
1580568031.315,416946
1580568041.314,416947
1580568051.314,416948
1580568061.314,416950
1580568071.314,416951
1580568081.314,416951
1580568091.314,416953
1580568101.314,416954
1580568111.314,416955
1580568121.314,416956
1580568131.315,416957
1580568141.315,416959
1580568151.314,416959
1580568161.314,416959
1580568171.314,416960
1580568181.315,416961
1580568191.316,416961
1580568201.315,416962
1580568211.314,416963
1580568221.314,416963
1580568231.314,416964
1580568241.314,416964
1580568251.317,416964
1580568261.315,416965
1580568271.315,416965
1580568281.314,416965
1580568291.316,416965
1580568301.314,416966
1580568311.314,416966
1580568321.315,416966
1580568331.314,416967
1580568341.314,416968
1580568351.314,416968
1580568361.318,416968
1580568371.314,416970
1580568381.314,416970
1580568391.315,416970
1580568401.314,416970
1580568411.314,416970
1580568421.314,416971
1580568431.314,416972
1580568441.314,416972
1580568451.315,416972
1580568461.314,416972
1580568471.314,416973
1580568481.315,416973
1580568491.314,416973
1580568501.314,416973
1580568511.317,416973
1580568521.314,416973
1580568531.314,416973
1580568541.314,416974
1580568551.314,416974
1580568561.314,416974
1580568571.314,416977
1580568581.316,416978
1580568591.314,416979
1580568601.315,416979
1580568611.314,416979
1580568621.314,416979
1580568631.314,416980
1580568641.314,416980
1580568651.314,416981
1580568661.314,416981
1580568671.316,416982
1580568681.314,416984
1580568691.315,416984
1580568701.315,416985
1580568711.316,416986
1580568721.315,416987
1580568731.314,416988
1580568741.314,416988
1580568751.314,416988
1580568761.314,416990
1580568771.314,416990
1580568781.314,416990
1580568791.314,416992
1580568801.316,416992
1580568811.316,416992
1580568821.314,416992
1580568831.314,416992
1580568841.314,416994
1580568851.314,416995
1580568861.314,416997
1580568871.314,416999
1580568881.314,416999
1580568891.314,417000
1580568901.314,417000
1580568911.314,417000
1580568921.314,417000
1580568931.314,417000
1580568941.314,417000
1580568951.314,417000
1580568961.316,417002
1580568971.314,417003
1580568981.314,417004
1580568991.314,417004
1580569001.314,417005
1580569011.314,417006
1580569021.315,417006
1580569031.314,417006
1580569041.314,417007
1580569051.314,417008
1580569061.314,417008
1580569071.315,417009
1580569081.314,417010
1580569091.314,417012
1580569101.314,417012
1580569111.314,417013
1580569121.314,417013
1580569131.314,417014
1580569141.314,417014
1580569151.319,417015
1580569161.314,417015
1580569171.314,417017
1580569181.314,417018
1580569191.314,417019
1580569201.314,417019
1580569211.314,417020
1580569221.314,417020
1580569231.315,417020
1580569241.314,417022
1580569251.314,417022
1580569261.315,417022
1580569271.314,417024
1580569281.317,417024
1580569291.314,417024
1580569301.314,417024
1580569311.314,417025
1580569321.317,417025
1580569331.315,417025
1580569341.314,417028
1580569351.315,417031
1580569361.314,417032
1580569371.314,417033
1580569381.314,417034
1580569391.314,417034
1580569401.314,417034
1580569411.314,417034
1580569421.314,417034
1580569431.314,417035
1580569441.314,417035
1580569451.314,417035
1580569461.314,417037
1580569471.314,417037
1580569481.314,417038
1580569491.314,417038
1580569501.315,417040
1580569511.314,417040
1580569521.314,417041
1580569531.316,417041
1580569541.314,417042
1580569551.315,417042
1580569561.314,417043
1580569571.314,417044
1580569581.314,417045
1580569591.315,417045
1580569601.314,417046
1580569611.314,417047
1580569621.315,417047
1580569631.314,417048
1580569641.314,417048
1580569651.314,417049
1580569661.315,417049
1580569671.316,417050
1580569681.314,417052
