epoch,value
1579886018.149,0
1579886028.154,0
1579886038.153,0
1579886048.149,1
1579886058.149,2
1579886068.149,3
1579886078.149,4
1579886088.149,11
1579886098.149,15
1579886108.149,34
1579886118.149,50
1579886128.149,52
1579886138.150,60
1579886148.149,70
1579886158.149,71
1579886168.149,77
1579886178.149,88
1579886188.149,103
1579886198.149,129
1579886208.149,145
1579886218.149,146
1579886228.149,162
1579886238.149,169
1579886248.149,181
1579886258.149,198
1579886268.149,215
1579886278.149,228
1579886288.149,231
1579886298.149,238
1579886308.149,249
1579886318.149,260
1579886328.149,275
1579886338.149,297
1579886348.152,298
1579886358.149,298
1579886368.149,298
1579886378.149,298
1579886388.149,298
1579886398.149,298
1579886408.149,298
1579886418.149,298
1579886428.149,298
1579886438.149,298
1579886448.149,298
1579886458.149,298
1579886468.149,298
1579886478.149,298
1579886488.149,298
1579886498.149,298
1579886508.149,298
1579886518.149,298
1579886528.149,298
1579886538.149,298
1579886548.149,298
1579886558.149,298
1579886568.149,298
1579886578.149,298
1579886588.154,298
1579886598.149,298
1579886608.149,298
1579886618.149,298
1579886628.149,298
1579886638.149,298
1579886648.149,298
1579886658.149,298
1579886668.149,298
1579886678.149,298
1579886688.149,298
1579886698.149,298
1579886708.149,298
1579886718.149,298
1579886728.149,298
1579886738.149,298
1579886748.149,298
1579886758.149,298
1579886768.149,298
1579886778.149,298
1579886788.149,298
1579886798.149,298
1579886808.149,298
1579886818.149,298
1579886828.149,298
1579886838.149,298
1579886848.149,298
1579886858.149,298
1579886868.149,298
1579886878.149,298
1579886888.149,298
1579886898.149,298
1579886908.149,298
1579886918.149,298
1579886928.150,298
1579886938.149,298
1579886948.149,298
1579886958.149,298
1579886968.149,298
1579886978.149,298
1579886988.149,298
1579886998.149,298
1579887008.149,298
1579887018.149,298
1579887028.149,298
1579887038.149,298
1579887048.149,298
1579887058.149,298
1579887068.149,298
1579887078.149,298
1579887088.149,298
1579887098.149,298
1579887108.154,298
1579887118.149,298
1579887128.149,298
1579887138.149,298
1579887148.149,298
1579887158.149,298
1579887168.149,298
1579887178.149,298
1579887188.149,298
1579887198.149,298
1579887208.149,298
1579887218.149,298
1579887228.149,298
1579887238.149,298
1579887248.149,298
1579887258.149,298
1579887268.149,298
1579887278.149,298
1579887288.149,298
1579887298.149,299
1579887308.149,299
1579887318.149,299
1579887328.154,299
1579887338.149,299
1579887348.149,299
1579887358.149,299
1579887368.149,299
1579887378.149,299
1579887388.149,299
1579887398.149,299
1579887408.149,299
1579887418.149,299
1579887428.149,299
1579887438.149,299
1579887448.149,299
1579887458.149,299
1579887468.149,299
1579887478.149,299
1579887488.149,299
1579887498.149,299
1579887508.149,299
1579887518.149,299
1579887528.149,299
1579887538.149,299
1579887548.149,299
1579887558.149,299
1579887568.149,299
1579887578.149,299
1579887588.149,299
1579887598.149,299
1579887608.149,299
1579887618.149,299
1579887628.149,299
1579887638.149,299
1579887648.149,299
1579887658.149,299
1579887668.149,299
1579887678.149,299
1579887688.149,299
1579887698.149,299
1579887708.149,299
1579887718.149,299
1579887728.149,299
1579887738.149,299
1579887758.149,300
1579887768.149,300
1579887778.149,300
1579887788.149,300
1579887798.149,300
1579887808.149,300
1579887818.149,300
1579887828.149,300
1579887838.149,300
1579887848.149,300
1579887858.149,300
1579887868.149,300
1579887878.149,300
1579887888.149,300
1579887898.149,300
1579887908.149,300
1579887918.149,300
1579887928.149,300
1579887938.149,300
1579887948.149,300
1579887958.149,300
1579887968.149,300
1579887978.149,300
1579887988.149,300
1579887998.149,300
1579888008.149,300
1579888018.149,300
1579888028.149,300
1579888038.149,300
1579888048.149,300
1579888058.149,300
1579888068.149,300
1579888078.149,300
1579888088.149,300
1579888098.149,300
1579888108.149,300
1579888118.149,300
1579888128.149,300
1579888138.149,300
1579888148.149,300
1579888158.149,300
1579888168.149,300
1579888178.149,300
1579888188.149,300
1579888198.149,300
1579888208.149,300
1579888218.149,300
1579888228.149,300
1579888238.149,300
1579888248.149,300
1579888258.149,300
1579888268.149,300
1579888278.149,300
1579888288.149,300
1579888298.149,300
1579888308.149,300
1579888318.149,300
1579888328.149,300
1579888338.152,300
1579888348.149,300
1579888358.149,300
1579888368.149,300
1579888378.149,300
1579888388.149,300
1579888398.149,300
1579888408.149,300
1579888418.149,300
1579888428.149,300
1579888438.153,300
1579888448.149,300
1579888458.149,300
1579888468.149,300
1579888478.149,300
1579888488.149,300
1579888498.149,300
1579888508.149,300
1579888518.149,300
1579888528.149,300
1579888538.149,300
1579888548.149,300
1579888558.149,300
1579888568.154,300
1579888578.149,300
1579888588.149,300
1579888598.149,300
1579888608.149,300
1579888618.150,300
1579888628.149,300
1579888638.149,300
1579888648.149,300
1579888658.149,300
1579888668.149,300
1579888678.149,301
1579888688.149,301
1579888698.149,301
1579888708.149,301
1579888718.149,301
1579888728.149,301
1579888738.149,301
1579888748.149,301
