epoch,value
1579805033.063,0
1579805043.063,0
1579805053.063,0
1579805063.063,1
1579805073.070,2
1579805083.063,3
1579805093.063,4
1579805103.063,5
1579805113.063,5
1579805123.063,6
1579805133.063,15
1579805143.063,30
1579805153.063,31
1579805163.070,32
1579805173.063,49
1579805183.063,51
1579805193.063,52
1579805203.063,53
1579805213.063,54
1579805223.063,55
1579805233.063,57
1579805243.063,58
1579805253.063,59
1579805263.063,59
1579805273.063,61
1579805283.063,61
1579805293.063,63
1579805303.063,64
1579805313.063,65
1579805323.063,66
1579805333.063,69
1579805343.063,84
1579805353.063,90
1579805363.063,91
1579805373.063,91
1579805383.063,91
1579805393.063,91
1579805403.063,91
1579805413.063,91
1579805423.069,91
1579805433.063,91
1579805443.063,91
1579805453.063,91
1579805463.063,91
1579805473.063,91
1579805483.063,91
1579805493.063,91
1579805503.063,91
1579805513.063,91
1579805523.063,91
1579805533.063,91
1579805543.063,91
1579805553.063,91
1579805563.063,91
1579805573.065,91
1579805583.063,91
1579805593.063,91
1579805603.063,91
1579805613.063,91
1579805623.063,92
1579805633.063,92
1579805643.063,92
1579805653.063,92
1579805663.063,92
1579805673.063,92
1579805683.064,92
1579805693.063,92
1579805703.063,92
1579805713.063,92
1579805723.063,92
1579805733.063,92
1579805743.063,92
1579805753.063,92
1579805763.063,92
1579805773.063,92
1579805783.063,92
1579805793.063,92
1579805803.063,92
1579805813.063,92
1579805823.063,92
1579805833.063,92
1579805843.063,92
1579805853.063,92
1579805863.063,92
1579805873.063,92
1579805883.063,92
1579805893.063,92
1579805903.063,92
1579805913.063,92
1579805923.063,92
1579805933.063,93
1579805943.063,93
1579805953.063,93
1579805963.063,93
1579805973.063,93
1579805983.063,93
1579805993.063,93
1579806003.063,93
1579806013.067,93
1579806023.063,93
1579806033.063,93
1579806043.063,93
1579806053.063,93
1579806063.063,93
1579806073.063,93
1579806083.063,93
1579806093.063,93
1579806103.063,93
1579806113.063,93
1579806123.063,93
1579806133.063,93
1579806143.063,94
1579806153.063,94
1579806163.063,94
1579806173.063,94
1579806183.063,94
1579806193.063,94
1579806203.063,94
1579806213.063,94
1579806223.063,94
1579806233.063,94
1579806243.063,94
1579806253.063,94
1579806263.063,94
1579806273.063,94
1579806283.063,94
1579806293.063,94
1579806303.065,94
1579806313.063,94
1579806323.063,94
1579806333.063,94
1579806343.063,94
1579806353.063,94
1579806363.063,94
1579806373.063,94
1579806383.063,94
1579806393.063,95
1579806403.063,95
1579806413.063,95
1579806423.063,95
1579806433.063,95
1579806443.063,95
1579806453.063,95
1579806463.063,95
1579806473.063,95
1579806483.063,95
1579806493.063,95
1579806503.063,95
1579806513.063,95
1579806523.063,95
1579806533.063,95
1579806543.063,95
1579806553.063,95
1579806563.063,95
