epoch,value
1579943684.366,18784
1579943694.348,18784
1579943704.348,18784
1579943714.348,18784
1579943724.350,18784
1579943734.349,18784
1579943744.348,18784
1579943754.350,18784
1579943764.348,18784
1579943774.348,18785
1579943784.348,18786
1579943794.348,18786
1579943804.348,18786
1579943814.348,18786
1579943824.348,18786
1579943834.348,18786
1579943844.348,18786
1579943854.350,18786
1579943864.350,18786
1579943874.348,18786
1579943884.348,18786
1579943894.348,18786
1579943904.348,18786
1579943914.348,18786
1579943924.348,18786
1579943934.348,18786
1579943944.348,18786
1579943954.348,18787
1579943964.348,18787
1579943974.348,18787
1579943984.348,18787
1579943994.348,18787
1579944004.348,18787
1579944014.348,18787
1579944024.348,18787
1579944034.349,18787
1579944044.348,18787
1579944054.351,18787
1579944064.348,18787
1579944074.348,18787
1579944084.348,18787
1579944094.348,18787
1579944104.348,18787
1579944114.348,18787
1579944124.348,18787
1579944134.348,18787
1579944144.350,18787
1579944154.348,18787
1579944164.349,18787
1579944174.349,18787
1579944184.348,18787
1579944194.349,18787
1579944204.348,18787
1579944214.348,18787
1579944224.351,18787
1579944234.348,18787
1579944244.348,18787
1579944254.350,18787
1579944264.348,18787
1579944274.348,18787
1579944284.348,18787
1579944294.348,18787
1579944304.348,18787
1579944314.349,18787
1579944324.348,18787
1579944334.348,18787
1579944344.348,18787
1579944354.348,18787
1579944364.350,18787
1579944374.350,18787
1579944384.348,18787
1579944394.348,18787
1579944404.348,18787
1579944414.348,18787
1579944424.350,18787
1579944434.348,18787
1579944444.348,18787
1579944454.348,18787
1579944464.348,18787
1579944474.348,18787
1579944484.348,18787
1579944494.348,18787
1579944504.350,18787
1579944514.349,18787
1579944524.348,18787
1579944534.348,18787
1579944544.348,18787
1579944554.348,18787
1579944564.351,18787
1579944574.350,18787
1579944584.348,18787
1579944594.348,18787
1579944604.348,18787
1579944614.348,18787
1579944624.348,18787
1579944634.348,18787
1579944644.348,18787
1579944654.350,18787
1579944664.350,18787
1579944674.348,18787
1579944684.348,18787
1579944694.349,18787
1579944704.348,18787
1579944714.348,18787
1579944724.348,18787
1579944734.348,18787
1579944744.348,18787
1579944754.348,18787
1579944764.348,18787
1579944774.348,18787
1579944784.348,18787
1579944794.348,18787
1579944804.348,18787
1579944814.348,18787
1579944824.348,18787
1579944834.348,18787
1579944844.348,18787
1579944854.348,18787
1579944864.348,18787
1579944874.348,18787
1579944884.352,18787
1579944894.348,18787
1579944904.348,18787
1579944914.349,18787
1579944924.348,18787
1579944934.350,18787
1579944944.348,18787
1579944954.348,18787
1579944964.348,18788
1579944974.348,18788
1579944984.348,18788
1579944994.348,18788
1579945004.348,18788
1579945014.348,18788
1579945024.349,18788
1579945034.348,18788
1579945044.350,18788
1579945054.348,18788
1579945064.348,18788
1579945074.348,18788
1579945084.348,18788
1579945094.348,18788
1579945104.348,18788
1579945114.348,18788
1579945124.348,18788
1579945134.349,18788
1579945144.348,18788
1579945154.348,18788
1579945164.348,18788
1579945174.348,18788
1579945184.348,18788
1579945194.348,18788
1579945204.348,18788
1579945214.348,18788
1579945224.350,18788
1579945234.348,18788
1579945244.348,18788
1579945254.348,18788
1579945264.348,18788
1579945274.348,18788
1579945284.348,18788
1579945294.348,18788
1579945304.348,18788
1579945314.348,18788
1579945324.348,18788
1579945334.348,18788
1579945344.348,18788
1579945354.348,18788
1579945364.348,18788
1579945374.349,18788
1579945384.348,18788
1579945394.348,18788
1579945404.349,18788
1579945414.348,18788
1579945424.348,18788
1579945434.348,18788
1579945444.348,18788
1579945454.348,18788
1579945464.348,18788
1579945474.348,18788
1579945484.348,18788
1579945494.349,18788
1579945504.348,18788
1579945514.348,18788
1579945524.348,18788
1579945534.348,18788
1579945544.348,18788
1579945554.349,18788
1579945564.348,18788
1579945574.348,18788
1579945584.348,18788
1579945594.348,18788
1579945604.349,18788
1579945614.348,18788
1579945624.348,18788
1579945634.348,18788
1579945644.350,18788
1579945654.348,18788
1579945664.348,18788
1579945674.348,18788
1579945684.348,18788
1579945694.348,18788
1579945704.352,18788
1579945714.349,18788
1579945724.348,18788
1579945734.348,18788
1579945744.348,18788
1579945754.348,18788
1579945764.348,18788
1579945774.348,18788
1579945784.348,18788
1579945794.348,18788
1579945804.348,18788
1579945814.348,18788
1579945824.348,18788
1579945834.348,18788
1579945844.348,18788
1579945854.348,18788
1579945864.349,18788
1579945874.348,18788
1579945884.348,18788
1579945894.348,18788
1579945904.349,18788
1579945914.348,18788
1579945924.348,18788
1579945934.348,18788
1579945944.348,18788
1579945954.349,18788
1579945964.348,18788
1579945974.348,18788
1579945984.348,18788
1579945994.349,18788
1579946004.348,18788
1579946014.348,18789
1579946024.350,18789
1579946034.348,18789
1579946044.348,18789
1579946054.349,18789
1579946064.348,18789
1579946074.348,18789
1579946084.348,18789
1579946094.348,18789
1579946104.351,18789
1579946114.348,18789
1579946124.349,18789
1579946134.348,18789
1579946144.349,18789
1579946154.348,18789
1579946164.348,18789
1579946174.348,18789
1579946184.350,18789
1579946194.348,18789
1579946204.349,18789
1579946214.348,18789
1579946224.348,18789
1579946234.348,18789
1579946244.349,18789
1579946254.348,18789
1579946264.348,18789
1579946274.348,18789
1579946284.350,18789
1579946294.348,18789
1579946304.348,18789
1579946314.349,18789
1579946324.349,18789
