epoch,value
1579921308.928,0
1579921318.928,0
1579921328.928,0
1579921338.928,0
1579921348.928,0
1579921358.928,0
1579921368.928,0
1579921378.928,0
1579921388.928,0
1579921398.928,0
1579921408.928,0
1579921418.928,0
1579921428.928,0
1579921438.928,0
1579921448.928,0
1579921458.928,0
1579921468.928,0
1579921478.928,0
1579921488.928,0
1579921498.928,0
1579921508.928,0
1579921518.928,0
1579921528.928,0
1579921538.928,0
1579921548.930,0
1579921558.928,0
1579921578.928,0
1579921588.928,0
1579921598.928,0
1579921608.928,0
1579921618.928,0
1579921628.928,0
1579921638.928,0
1579921648.928,0
1579921658.928,0
1579921668.928,0
1579921678.928,0
1579921688.928,0
1579921698.928,0
1579921708.928,0
1579921718.928,0
1579921728.928,0
1579921738.928,0
1579921748.928,0
1579921758.928,0
1579921768.928,0
1579921778.928,0
1579921788.928,0
1579921798.928,0
1579921808.928,0
1579921818.928,0
1579921828.928,0
1579921838.928,0
1579921848.928,0
1579921858.928,0
1579921868.928,0
1579921878.928,0
1579921888.928,0
1579921898.928,0
1579921908.928,1
1579921918.928,1
1579921928.928,1
1579921938.928,1
1579921948.928,1
1579921958.928,1
1579921968.928,1
1579921978.928,1
1579921988.928,1
1579921998.928,1
1579922008.928,1
1579922018.928,1
1579922028.928,1
1579922038.928,1
1579922048.928,1
1579922058.928,1
1579922068.928,1
1579922078.928,1
1579922088.928,1
1579922098.928,1
1579922108.928,1
1579922118.928,1
1579922128.928,1
1579922138.928,1
1579922148.928,1
1579922158.928,1
1579922168.928,1
1579922178.928,1
1579922188.928,1
1579922198.928,1
1579922208.928,1
1579922218.928,1
1579922228.928,1
1579922238.928,1
1579922248.928,1
1579922258.928,1
1579922268.928,1
1579922278.928,1
1579922288.928,1
1579922298.928,1
1579922308.928,1
1579922318.928,1
1579922328.928,1
1579922338.928,1
1579922348.928,1
1579922358.928,1
1579922368.928,1
1579922378.928,1
1579922388.928,1
1579922398.928,1
1579922408.928,1
1579922418.928,1
1579922428.928,1
1579922438.928,1
1579922448.928,1
1579922458.928,1
1579922468.928,1
1579922478.928,1
1579922488.928,1
1579922498.928,1
1579922508.928,1
1579922518.928,1
1579922528.928,1
1579922538.928,1
1579922548.928,1
1579922558.928,1
1579922568.928,1
1579922578.928,1
1579922588.928,2
1579922598.928,2
1579922608.928,2
1579922618.928,2
1579922628.928,2
1579922638.928,2
1579922648.928,2
1579922658.928,2
1579922668.928,2
1579922678.928,2
1579922688.928,2
1579922698.928,2
1579922708.928,2
1579922718.928,2
1579922728.928,2
1579922738.928,2
1579922748.928,2
1579922758.928,2
1579922768.928,2
1579922778.928,2
1579922788.929,2
1579922798.928,2
1579922808.928,2
1579922818.928,2
1579922828.928,2
1579922838.928,2
1579922848.928,2
1579922858.928,2
1579922868.928,2
1579922878.928,2
1579922888.928,2
1579922898.928,2
1579922908.928,2
1579922918.928,2
1579922928.928,2
1579922938.928,2
1579922948.928,2
1579922958.928,2
1579922968.928,2
1579922978.928,2
1579922988.937,2
1579922998.928,2
1579923008.928,2
1579923018.928,2
1579923028.928,2
1579923038.928,2
1579923048.928,2
1579923058.928,2
1579923068.928,2
1579923078.928,2
1579923088.928,2
1579923098.928,2
1579923108.928,2
1579923118.928,2
1579923128.928,2
1579923138.928,2
1579923148.928,2
1579923158.928,2
1579923168.928,2
1579923178.928,2
1579923188.928,2
1579923198.928,2
1579923208.928,2
1579923218.928,3
1579923228.928,3
1579923238.928,3
1579923248.929,3
1579923258.928,3
1579923268.928,3
1579923278.928,3
1579923288.928,3
1579923298.928,3
1579923308.928,3
1579923318.928,3
1579923328.928,3
1579923338.928,3
1579923348.928,3
1579923358.928,3
1579923368.928,3
1579923378.928,3
1579923388.928,3
1579923398.928,3
1579923408.928,3
1579923418.928,3
1579923428.928,3
1579923438.928,3
1579923448.928,3
1579923458.928,3
1579923468.928,3
1579923478.928,3
1579923488.928,3
1579923498.928,3
1579923508.928,3
1579923518.928,3
1579923528.928,3
1579923538.928,3
1579923548.928,3
1579923558.928,3
1579923568.928,3
1579923578.928,3
1579923588.928,3
1579923598.928,3
1579923608.928,3
1579923618.928,3
1579923628.928,3
1579923638.928,3
1579923648.928,3
1579923658.928,3
1579923668.928,3
1579923678.928,3
1579923688.928,3
1579923698.928,3
1579923708.928,3
1579923718.928,3
1579923728.928,3
1579923738.928,3
1579923748.928,3
1579923758.928,3
1579923768.928,3
1579923778.928,3
1579923788.928,3
1579923798.928,3
1579923808.928,3
1579923818.928,3
1579923828.928,3
1579923838.928,3
1579923848.928,3
1579923858.928,3
1579923868.928,3
1579923878.928,3
1579923888.928,3
1579923898.928,3
1579923908.928,3
1579923918.928,3
1579923928.928,3
1579923938.928,3
1579923948.928,4
1579923958.928,4
1579923968.928,4
1579923978.928,4
1579923988.928,4
1579923998.928,4
1579924008.928,4
1579924018.928,4
1579924028.928,4
1579924038.928,4
