epoch,value
1580509415.670,20080
1580509425.648,20080
1580509435.644,20080
1580509445.644,20080
1580509455.644,20080
1580509465.644,20080
1580509475.645,20080
1580509485.645,20080
1580509495.644,20080
1580509505.644,20080
1580509515.645,20080
1580509525.644,20080
1580509535.644,20080
1580509545.644,20080
1580509555.644,20080
1580509565.644,20080
1580509575.644,20080
1580509585.644,20080
1580509595.646,20080
1580509605.645,20080
1580509615.644,20080
1580509625.644,20080
1580509635.644,20080
1580509645.647,20080
1580509655.644,20080
1580509665.645,20080
1580509675.644,20080
1580509685.647,20080
1580509695.644,20080
1580509705.645,20080
1580509715.645,20080
1580509725.646,20080
1580509735.644,20080
1580509745.646,20080
1580509755.644,20080
1580509765.645,20080
1580509775.644,20080
1580509785.644,20080
1580509795.644,20080
1580509805.644,20080
1580509815.644,20080
1580509825.644,20080
1580509835.644,20080
1580509845.645,20080
1580509855.645,20080
1580509865.644,20080
1580509875.645,20080
1580509885.644,20080
1580509895.646,20080
1580509905.646,20080
1580509915.646,20081
1580509925.646,20081
1580509935.644,20086
1580509945.644,20087
1580509955.644,20087
1580509965.646,20087
1580509975.646,20087
1580509985.646,20087
1580509995.645,20087
1580510005.648,20087
1580510015.644,20087
1580510025.647,20087
1580510035.644,20087
1580510045.645,20087
1580510055.645,20087
1580510065.644,20087
1580510075.644,20087
1580510085.645,20087
1580510095.644,20088
1580510105.644,20088
1580510115.644,20088
1580510125.644,20088
1580510135.644,20088
1580510145.645,20088
1580510155.646,20088
1580510165.645,20088
1580510175.644,20088
1580510185.644,20088
1580510195.644,20089
1580510205.645,20089
1580510215.644,20089
1580510225.644,20089
1580510235.644,20089
1580510245.646,20089
1580510255.644,20089
1580510265.644,20089
1580510275.644,20089
1580510285.646,20089
1580510295.644,20090
1580510305.647,20090
1580510315.646,20090
1580510325.644,20091
1580510335.645,20091
1580510345.649,20091
1580510355.645,20091
1580510365.644,20091
1580510375.644,20091
1580510385.644,20091
1580510395.644,20091
1580510405.645,20091
1580510415.644,20092
1580510425.644,20092
1580510435.645,20092
1580510445.644,20092
1580510455.644,20092
1580510465.647,20092
1580510475.644,20092
1580510485.645,20092
1580510495.644,20092
1580510505.644,20092
1580510515.644,20093
1580510525.644,20094
1580510535.644,20094
1580510545.645,20094
1580510555.644,20094
1580510565.644,20094
1580510575.644,20094
1580510585.645,20094
1580510595.644,20094
1580510605.644,20094
1580510615.644,20094
1580510625.644,20094
1580510635.645,20094
1580510645.644,20094
1580510655.644,20094
1580510665.644,20094
1580510675.644,20094
1580510685.645,20094
1580510695.646,20094
1580510705.644,20094
1580510715.644,20094
1580510725.644,20094
1580510735.644,20094
1580510745.645,20094
1580510755.646,20094
1580510765.644,20094
1580510775.645,20094
1580510785.644,20094
1580510795.645,20094
1580510805.644,20094
1580510815.648,20094
1580510825.644,20094
1580510835.644,20094
1580510845.644,20094
1580510855.645,20094
1580510865.645,20094
1580510875.644,20094
1580510885.644,20094
1580510895.644,20094
1580510905.644,20095
1580510915.644,20095
1580510925.644,20095
1580510935.644,20095
1580510945.644,20095
1580510955.645,20095
1580510965.645,20095
1580510975.644,20095
1580510985.644,20095
1580510995.644,20096
1580511005.645,20096
1580511015.645,20098
1580511025.646,20098
1580511035.644,20098
1580511045.644,20098
1580511055.644,20098
1580511065.644,20098
1580511075.645,20098
1580511085.645,20098
1580511095.644,20098
1580511105.644,20098
1580511115.644,20100
1580511125.645,20100
1580511135.645,20100
1580511145.644,20100
1580511155.644,20100
1580511165.645,20100
1580511175.644,20100
1580511185.644,20100
1580511195.644,20100
1580511205.645,20100
1580511215.644,20100
1580511225.644,20100
1580511235.644,20100
1580511245.644,20101
1580511255.644,20102
1580511265.646,20102
1580511275.644,20103
1580511285.644,20103
1580511295.644,20104
1580511305.644,20104
1580511315.644,20104
1580511325.644,20104
1580511335.645,20104
1580511345.644,20104
1580511355.644,20104
1580511365.645,20104
1580511375.646,20104
1580511385.645,20104
1580511395.646,20104
1580511405.645,20104
1580511415.646,20104
1580511425.644,20104
1580511435.645,20104
1580511445.644,20104
1580511455.644,20104
1580511465.644,20104
1580511475.644,20104
1580511485.644,20104
1580511495.644,20104
1580511505.645,20104
1580511515.648,20104
1580511525.644,20104
1580511535.644,20104
1580511545.645,20104
1580511555.645,20104
1580511565.646,20104
1580511575.645,20104
1580511585.645,20104
1580511595.644,20104
