epoch,value
1580511605.645,20104
1580511615.645,20104
1580511625.645,20104
1580511635.644,20104
1580511645.644,20104
1580511655.644,20104
1580511665.644,20104
1580511675.644,20104
1580511685.644,20104
1580511695.646,20104
1580511705.647,20105
1580511715.644,20105
1580511725.644,20105
1580511735.644,20105
1580511745.647,20105
1580511755.645,20105
1580511765.644,20105
1580511775.644,20105
1580511785.644,20105
1580511795.647,20105
1580511805.644,20105
1580511815.647,20105
1580511825.644,20105
1580511835.644,20105
1580511845.644,20105
1580511855.646,20105
1580511865.644,20105
1580511875.644,20105
1580511885.644,20105
1580511895.644,20105
1580511905.645,20105
1580511915.644,20105
1580511925.647,20105
1580511935.644,20106
1580511945.644,20106
1580511955.644,20107
1580511965.644,20108
1580511975.644,20108
1580511985.644,20108
1580511995.644,20108
1580512005.644,20108
1580512015.644,20108
1580512025.644,20108
1580512035.644,20108
1580512045.644,20108
1580512055.644,20108
1580512065.646,20108
1580512075.644,20108
1580512085.644,20108
1580512095.645,20108
1580512105.644,20108
1580512115.645,20108
1580512125.645,20108
1580512135.644,20108
1580512145.647,20108
1580512155.644,20108
1580512165.644,20108
1580512175.645,20108
1580512185.646,20108
1580512195.645,20108
1580512205.646,20109
1580512215.646,20109
1580512225.644,20110
1580512235.646,20110
1580512245.644,20110
1580512255.647,20110
1580512265.645,20110
1580512275.644,20110
1580512285.645,20110
1580512295.644,20110
1580512305.644,20110
1580512315.644,20110
1580512325.644,20110
1580512335.644,20110
1580512345.645,20110
1580512355.644,20110
1580512365.645,20110
1580512375.644,20110
1580512385.645,20110
1580512395.644,20110
1580512405.644,20110
1580512415.644,20110
1580512425.645,20110
1580512435.645,20110
1580512445.644,20110
1580512455.647,20110
1580512465.644,20110
1580512475.645,20110
1580512485.647,20110
1580512495.645,20110
1580512505.644,20110
1580512515.645,20110
1580512525.645,20110
1580512535.645,20110
1580512545.644,20110
1580512555.644,20110
1580512565.644,20110
1580512575.644,20110
1580512585.644,20110
1580512595.647,20110
1580512605.644,20110
1580512615.645,20110
1580512625.644,20110
1580512635.644,20110
1580512645.645,20110
1580512655.644,20110
1580512665.644,20110
1580512675.644,20110
1580512685.644,20110
1580512695.644,20110
1580512705.644,20110
1580512715.645,20110
1580512725.644,20110
1580512735.644,20110
1580512745.646,20110
1580512755.646,20110
1580512765.644,20110
1580512775.644,20110
1580512785.645,20110
1580512795.645,20110
1580512805.646,20110
1580512815.645,20110
1580512825.645,20110
1580512835.644,20110
1580512845.644,20110
1580512855.644,20110
1580512865.645,20110
1580512875.646,20110
1580512885.645,20110
1580512895.644,20110
1580512905.644,20110
1580512915.644,20110
1580512925.645,20110
1580512935.644,20110
1580512945.644,20110
1580512955.644,20110
1580512965.644,20110
1580512975.644,20110
1580512985.646,20110
1580512995.645,20110
1580513005.644,20110
1580513015.644,20110
1580513025.644,20110
1580513035.645,20110
1580513045.646,20110
1580513055.644,20110
1580513065.644,20110
1580513075.644,20110
1580513085.645,20110
1580513095.644,20110
1580513105.644,20110
1580513115.645,20110
1580513125.644,20110
1580513135.644,20110
1580513145.645,20110
1580513155.644,20111
1580513165.645,20111
1580513175.644,20111
1580513185.644,20111
1580513195.645,20111
1580513205.644,20111
1580513215.644,20111
1580513225.644,20111
1580513235.644,20111
1580513245.644,20111
1580513255.645,20111
1580513265.644,20111
1580513275.644,20111
1580513285.645,20111
1580513295.646,20111
1580513305.645,20111
1580513315.644,20111
1580513325.646,20111
1580513335.644,20111
1580513345.648,20111
1580513355.645,20111
1580513365.644,20111
1580513375.644,20111
1580513385.644,20111
1580513395.644,20111
1580513405.645,20111
1580513415.644,20111
1580513425.644,20111
1580513435.644,20111
1580513445.644,20111
1580513455.644,20111
1580513465.644,20111
1580513475.647,20111
1580513485.645,20111
1580513495.644,20111
1580513505.644,20111
1580513515.644,20111
1580513525.644,20111
1580513535.646,20111
1580513545.646,20111
1580513555.644,20111
1580513565.644,20111
1580513575.644,20111
1580513585.644,20111
1580513595.644,20111
1580513605.644,20111
1580513615.645,20111
1580513625.647,20111
1580513635.644,20111
1580513645.644,20111
1580513655.645,20111
1580513665.644,20112
1580513675.644,20113
1580513685.644,20113
1580513695.645,20113
1580513705.644,20113
1580513715.646,20113
1580513725.645,20113
1580513735.644,20113
1580513745.645,20113
1580513755.644,20113
1580513765.644,20113
1580513775.644,20113
1580513785.645,20113
1580513795.645,20113
1580513805.644,20113
1580513815.645,20113
1580513825.644,20113
1580513835.644,20113
1580513845.644,20113
1580513855.644,20113
1580513865.645,20113
1580513875.644,20113
1580513885.644,20113
1580513895.644,20113
1580513905.648,20114
1580513915.644,20114
1580513925.644,20114
1580513935.644,20114
1580513945.646,20114
1580513955.644,20114
1580513965.645,20114
1580513975.644,20114
1580513985.644,20114
1580513995.645,20114
1580514005.644,20114
1580514015.646,20114
1580514025.644,20114
1580514035.645,20114
1580514045.644,20114
1580514055.644,20114
1580514065.645,20114
1580514075.645,20114
1580514085.645,20116
1580514095.645,20116
1580514105.644,20116
1580514115.644,20116
1580514125.646,20116
1580514135.644,20116
1580514145.645,20117
1580514155.644,20118
1580514165.647,20118
1580514175.644,20119
1580514185.644,20119
1580514195.645,20119
1580514205.645,20119
1580514215.644,20119
1580514225.644,20119
1580514235.647,20119
1580514245.644,20119
1580514255.645,20119
1580514265.644,20119
1580514275.644,20119
1580514285.644,20119
1580514295.644,20119
1580514305.646,20119
1580514315.644,20119
1580514325.644,20119
1580514335.644,20119
1580514345.645,20119
1580514355.644,20119
1580514365.644,20119
1580514375.645,20119
1580514385.647,20119
1580514395.644,20119
1580514405.645,20119
1580514415.645,20119
1580514425.648,20119
1580514435.644,20119
1580514445.646,20119
1580514455.644,20119
1580514465.644,20119
1580514475.644,20119
1580514485.645,20119
1580514495.644,20119
1580514505.644,20119
1580514515.646,20119
1580514525.644,20119
1580514535.644,20119
1580514545.644,20120
1580514555.644,20120
1580514565.644,20120
1580514575.646,20120
1580514585.647,20120
1580514595.644,20120
1580514605.644,20120
1580514615.644,20120
1580514625.644,20120
1580514635.644,20120
1580514645.644,20120
1580514655.647,20120
1580514665.646,20120
1580514675.644,20120
1580514685.644,20120
1580514695.644,20120
1580514705.645,20120
1580514715.644,20120
1580514725.644,20120
1580514735.645,20120
1580514745.645,20120
1580514755.647,20120
1580514765.644,20120
1580514775.644,20120
1580514785.645,20122
1580514795.645,20122
1580514805.645,20122
1580514815.645,20122
1580514825.644,20122
1580514835.645,20122
1580514845.644,20122
1580514855.644,20122
1580514865.644,20122
1580514875.644,20122
1580514885.646,20122
1580514895.644,20122
1580514905.645,20122
1580514915.645,20122
1580514925.644,20122
1580514935.644,20122
1580514945.645,20122
1580514955.644,20122
1580514965.644,20122
1580514975.647,20122
1580514985.645,20122
1580514995.644,20122
1580515005.644,20122
1580515015.645,20122
1580515025.645,20122
1580515035.644,20122
1580515045.644,20122
1580515055.646,20122
1580515065.644,20122
1580515075.644,20122
1580515085.644,20122
1580515095.644,20122
1580515105.645,20122
1580515115.644,20122
1580515125.646,20122
1580515135.644,20122
1580515145.645,20122
1580515155.645,20122
1580515165.645,20122
1580515175.644,20122
1580515185.645,20122
1580515195.646,20122
1580515205.644,20122
1580515215.647,20122
1580515225.644,20122
1580515235.644,20123
1580515245.646,20123
1580515255.644,20123
1580515265.645,20123
1580515275.646,20123
1580515285.644,20123
1580515295.644,20123
1580515305.644,20123
1580515315.646,20123
1580515325.644,20123
1580515335.644,20123
1580515345.644,20123
1580515355.645,20123
1580515365.644,20123
1580515375.644,20123
1580515385.644,20123
1580515395.645,20123
1580515405.646,20123
1580515415.644,20123
1580515425.644,20123
1580515435.644,20123
1580515445.644,20123
1580515455.644,20123
1580515465.644,20123
1580515475.644,20124
1580515485.644,20124
1580515495.644,20125
1580515505.645,20125
1580515515.644,20125
1580515525.644,20125
1580515535.647,20125
1580515545.645,20125
1580515555.644,20125
1580515565.645,20125
1580515575.644,20125
1580515585.644,20125
1580515595.645,20125
1580515605.644,20125
1580515615.644,20125
1580515625.645,20125
1580515635.644,20125
1580515645.645,20125
1580515655.645,20125
1580515665.645,20125
1580515675.645,20125
1580515685.644,20125
1580515695.644,20125
1580515705.644,20125
1580515715.644,20125
1580515725.644,20125
1580515735.645,20125
1580515745.645,20125
1580515755.645,20125
1580515765.647,20125
1580515775.645,20125
1580515785.645,20125
1580515795.644,20125
1580515805.644,20125
1580515815.646,20125
1580515825.646,20125
1580515835.644,20125
1580515845.645,20125
1580515855.644,20125
1580515865.647,20125
1580515875.644,20125
1580515885.644,20125
1580515895.644,20125
1580515905.645,20125
1580515915.644,20125
1580515925.644,20125
1580515935.647,20125
1580515945.645,20125
1580515955.645,20125
1580515965.644,20125
1580515975.644,20125
1580515985.644,20125
1580515995.645,20125
1580516005.644,20125
1580516015.644,20125
1580516025.645,20125
1580516035.645,20125
1580516045.645,20126
1580516055.645,20127
1580516065.645,20127
1580516075.644,20127
1580516085.644,20127
1580516095.644,20127
1580516105.644,20127
1580516115.644,20127
1580516125.644,20127
1580516135.645,20127
1580516145.645,20127
1580516155.645,20127
1580516165.644,20127
1580516175.644,20127
1580516185.644,20127
1580516195.645,20127
1580516205.644,20127
1580516215.644,20127
1580516225.644,20127
1580516235.644,20127
1580516245.644,20127
1580516255.645,20127
1580516265.644,20127
1580516275.644,20127
1580516285.644,20127
1580516295.645,20127
1580516305.645,20127
1580516315.646,20127
1580516325.645,20127
1580516335.646,20127
1580516345.644,20127
1580516355.647,20127
1580516365.644,20127
1580516375.644,20127
1580516385.644,20127
1580516395.644,20127
1580516405.645,20127
1580516415.646,20127
1580516425.645,20127
1580516435.646,20128
1580516445.646,20128
1580516455.645,20128
1580516465.644,20128
1580516475.644,20128
1580516485.645,20128
1580516495.645,20128
1580516505.648,20130
1580516515.644,20130
1580516525.644,20131
1580516535.644,20131
1580516545.644,20131
1580516555.646,20131
1580516565.644,20131
1580516575.644,20131
1580516585.644,20131
1580516595.645,20131
1580516605.644,20131
1580516615.644,20131
1580516625.644,20131
1580516635.645,20131
1580516645.646,20131
1580516655.644,20131
1580516665.645,20131
1580516675.644,20131
1580516685.645,20131
1580516695.644,20131
1580516705.645,20131
1580516715.646,20131
1580516725.644,20131
1580516735.644,20131
1580516745.644,20131
1580516755.646,20131
1580516765.645,20131
1580516775.644,20131
1580516785.645,20131
1580516795.644,20131
1580516805.645,20131
1580516815.646,20131
1580516825.644,20131
1580516835.644,20132
1580516845.644,20132
1580516855.646,20132
1580516865.644,20132
1580516875.645,20132
1580516885.645,20132
1580516895.645,20132
1580516905.644,20132
1580516915.645,20132
1580516925.644,20132
1580516935.644,20132
1580516945.645,20132
1580516955.644,20132
1580516965.644,20132
1580516975.644,20132
1580516985.645,20132
1580516995.645,20132
1580517005.648,20132
1580517015.646,20132
1580517025.644,20132
1580517035.646,20134
1580517045.644,20134
1580517055.644,20134
1580517065.646,20134
1580517075.647,20134
1580517085.644,20134
1580517095.644,20134
1580517105.644,20134
1580517115.644,20134
1580517125.646,20134
1580517135.645,20134
1580517145.644,20134
1580517155.644,20134
1580517165.649,20134
1580517175.645,20134
1580517185.644,20134
1580517195.645,20134
1580517205.645,20134
1580517215.644,20134
1580517225.644,20134
1580517235.644,20134
1580517245.644,20134
1580517255.646,20134
1580517265.644,20134
1580517275.646,20134
1580517285.644,20134
1580517295.644,20134
1580517305.645,20134
1580517315.644,20134
1580517325.646,20134
1580517335.644,20134
1580517345.644,20134
1580517355.646,20134
1580517365.644,20134
1580517375.644,20134
1580517385.645,20134
1580517395.644,20134
1580517405.644,20134
1580517415.644,20134
1580517425.645,20134
1580517435.649,20134
1580517445.644,20134
1580517455.644,20134
1580517465.645,20134
1580517475.644,20134
1580517485.645,20135
1580517495.645,20135
1580517505.645,20135
1580517515.645,20135
1580517525.645,20135
1580517535.645,20135
1580517545.644,20135
1580517555.646,20135
1580517565.644,20135
1580517575.644,20136
