epoch,value
1580661785.126,0
1580661795.126,0
1580661805.126,0
1580661815.126,15
1580661825.126,25
1580661835.126,34
1580661845.126,41
1580661855.126,42
1580661865.126,42
1580661875.126,58
1580661885.127,71
1580661895.126,80
1580661905.126,91
1580661915.126,105
1580661925.126,111
1580661935.126,136
1580661945.130,137
1580661955.126,138
1580661965.126,139
1580661975.126,141
1580661985.126,144
1580661995.126,147
1580662005.126,154
1580662015.126,171
1580662025.126,171
1580662035.126,172
1580662045.126,177
1580662055.126,185
1580662065.126,195
1580662075.133,209
1580662085.126,220
1580662095.126,222
1580662105.126,226
1580662115.126,226
1580662125.126,226
1580662135.126,226
1580662145.126,226
1580662155.126,226
1580662165.126,227
1580662175.126,227
1580662185.126,227
1580662195.126,227
1580662205.126,227
1580662215.126,227
1580662225.126,227
1580662235.126,227
1580662245.126,227
1580662255.126,227
1580662265.126,227
1580662275.126,227
1580662285.126,227
1580662295.126,227
1580662305.126,227
1580662315.126,227
1580662325.126,227
1580662335.126,227
1580662345.126,227
1580662355.126,227
1580662365.126,227
1580662375.126,227
1580662385.126,227
1580662395.126,227
1580662405.126,227
1580662415.126,227
1580662425.126,227
1580662435.126,227
1580662445.126,227
1580662455.126,227
1580662465.126,227
1580662475.126,228
1580662485.126,228
1580662495.126,228
1580662505.126,228
1580662515.126,228
1580662525.126,228
1580662535.126,228
1580662545.126,228
1580662555.126,228
1580662565.126,228
1580662575.126,228
1580662585.126,228
1580662595.126,228
1580662605.126,228
1580662615.126,228
1580662625.126,228
1580662635.126,228
1580662645.126,228
1580662655.126,228
1580662665.126,228
1580662675.126,229
1580662685.126,229
1580662695.126,229
1580662705.126,229
1580662715.126,229
1580662725.126,229
1580662735.126,229
1580662745.126,229
1580662755.126,229
1580662765.126,229
1580662775.126,229
1580662785.126,229
1580662795.126,229
1580662805.126,229
1580662815.126,229
1580662825.126,229
1580662835.126,229
1580662845.126,229
1580662855.126,229
1580662865.126,229
1580662875.126,229
1580662885.126,229
1580662895.126,229
1580662905.126,229
1580662915.126,229
1580662925.126,229
1580662935.126,229
1580662945.126,229
1580662955.126,229
1580662965.126,230
1580662975.126,230
1580662985.126,230
1580662995.126,230
1580663005.126,230
1580663015.126,230
1580663025.126,230
1580663035.126,230
1580663045.126,230
1580663055.126,230
1580663065.126,230
1580663075.126,230
1580663085.126,230
1580663095.126,230
1580663105.133,230
1580663115.126,230
1580663125.126,230
1580663135.126,230
1580663145.126,230
1580663155.126,231
1580663165.126,231
1580663175.126,231
1580663185.126,231
1580663195.126,231
1580663205.126,231
1580663215.126,231
1580663225.126,231
1580663235.127,231
1580663245.126,231
1580663255.126,231
1580663265.126,231
1580663275.126,231
1580663285.126,232
1580663295.126,232
1580663305.126,232
1580663315.126,232
1580663325.126,232
1580663335.126,232
1580663345.126,232
1580663355.126,232
1580663365.126,232
1580663375.126,233
1580663385.126,233
1580663395.126,233
1580663405.126,233
1580663415.126,233
1580663425.126,233
1580663435.126,233
1580663445.126,233
1580663455.126,233
1580663465.126,233
1580663475.126,233
1580663485.126,233
1580663495.126,233
1580663505.126,233
1580663515.126,233
1580663525.126,233
1580663535.126,234
1580663545.126,234
1580663555.126,234
1580663565.126,234
1580663575.126,234
1580663585.127,234
1580663595.126,234
1580663605.126,234
1580663615.126,234
1580663625.126,234
1580663635.126,234
1580663645.126,234
1580663655.126,234
1580663665.126,234
1580663675.126,234
1580663685.126,234
1580663695.126,234
1580663705.126,234
1580663715.126,234
1580663725.126,234
1580663735.133,234
1580663745.126,234
1580663755.126,234
1580663765.126,234
1580663775.126,234
1580663785.126,234
1580663795.126,234
1580663805.126,234
1580663815.126,235
1580663825.126,235
1580663835.126,235
1580663845.126,235
1580663855.126,235
1580663865.126,235
1580663875.126,235
1580663885.126,235
1580663895.126,235
1580663905.126,235
1580663915.126,235
1580663925.126,235
1580663935.126,235
1580663945.126,235
1580663955.126,235
1580663965.126,235
1580663975.126,236
1580663985.126,236
1580663995.126,236
1580664005.126,236
1580664015.126,236
1580664025.126,236
1580664035.126,236
1580664045.126,236
1580664055.126,236
1580664065.126,236
1580664075.126,236
1580664085.126,236
1580664095.126,236
1580664105.126,236
1580664115.126,236
1580664125.126,236
1580664135.126,237
1580664145.126,237
1580664155.126,237
1580664165.126,237
1580664175.126,237
1580664185.126,237
1580664195.126,237
1580664205.126,237
1580664215.126,237
1580664225.126,237
1580664235.126,237
1580664245.126,237
1580664255.126,237
1580664265.126,237
1580664275.126,237
1580664285.126,238
1580664295.126,238
1580664305.126,238
1580664315.126,238
1580664325.126,238
1580664335.126,238
1580664345.126,238
1580664355.126,238
1580664365.126,238
1580664375.126,238
1580664385.126,238
1580664395.126,238
1580664405.126,238
1580664415.126,238
1580664425.126,238
1580664435.126,238
1580664445.126,239
1580664455.126,239
1580664465.126,239
1580664475.129,239
1580664485.126,239
1580664495.126,239
1580664505.126,239
1580664515.126,239
1580664525.129,239
1580664535.126,239
1580664545.126,239
1580664555.133,240
1580664565.126,240
1580664575.126,240
1580664585.126,240
1580664595.126,240
1580664605.126,240
1580664615.126,240
1580664625.126,240
1580664635.126,240
1580664645.126,240
1580664655.126,240
1580664665.126,240
1580664675.126,240
1580664685.126,241
1580664695.126,241
1580664705.126,241
1580664715.126,241
1580664725.126,241
1580664735.126,241
1580664745.126,241
1580664755.126,241
1580664765.126,241
1580664775.126,241
1580664785.126,241
1580664795.126,241
1580664805.126,241
1580664815.126,241
1580664825.126,241
1580664835.126,241
1580664845.126,241
1580664855.126,241
1580664865.126,242
1580664875.126,242
1580664885.126,242
1580664895.126,242
1580664905.126,242
1580664915.126,242
1580664925.126,242
1580664935.126,242
1580664945.126,242
1580664955.126,242
1580664965.126,242
1580664975.126,242
1580664985.126,242
1580664995.126,242
1580665005.126,243
1580665015.126,243
1580665025.126,243
1580665035.126,243
1580665045.126,243
1580665055.126,243
1580665065.126,243
1580665075.126,243
1580665085.126,243
1580665095.126,243
1580665105.126,243
1580665115.126,243
1580665125.126,243
1580665135.126,243
1580665145.126,243
1580665155.126,243
1580665165.126,243
1580665175.126,243
1580665185.126,243
1580665195.126,243
1580665205.126,243
1580665215.126,243
1580665225.126,243
1580665235.126,243
1580665245.126,243
1580665255.126,243
1580665265.126,243
1580665275.126,243
1580665285.126,243
1580665295.126,243
1580665305.126,243
1580665315.126,243
1580665325.126,243
1580665335.126,243
1580665345.126,243
1580665355.126,243
1580665365.126,243
1580665375.126,243
1580665385.126,244
1580665395.126,244
1580665405.126,244
1580665415.126,244
1580665425.126,244
1580665435.126,244
1580665445.126,244
1580665455.126,244
1580665465.126,244
1580665475.126,244
1580665485.126,244
1580665495.126,244
1580665505.126,244
1580665515.126,244
1580665525.126,244
1580665535.126,244
1580665545.126,244
1580665555.126,244
1580665565.126,244
1580665575.126,245
1580665585.126,245
1580665595.126,245
1580665605.126,245
1580665615.126,245
1580665625.126,245
1580665635.126,245
1580665645.126,245
1580665655.126,245
1580665665.126,245
1580665675.126,245
1580665685.126,245
1580665695.126,245
1580665705.126,245
1580665715.126,245
1580665725.126,245
1580665735.126,245
1580665745.126,245
1580665755.126,245
1580665765.126,245
1580665775.126,245
1580665785.126,245
1580665795.126,245
1580665805.126,245
1580665815.126,245
1580665825.126,245
1580665835.126,245
1580665845.126,245
1580665855.126,245
1580665865.126,246
1580665875.126,246
1580665885.126,246
1580665895.126,246
1580665905.126,246
1580665915.126,246
1580665925.126,246
1580665935.126,246
1580665945.126,246
1580665955.126,246
1580665965.126,246
1580665975.126,246
1580665985.126,246
1580665995.126,246
1580666005.126,246
1580666015.126,246
1580666025.126,246
1580666035.126,246
1580666045.126,246
1580666055.126,246
1580666065.126,246
1580666075.126,246
1580666085.126,246
1580666095.126,246
1580666105.126,246
1580666115.126,246
1580666125.126,246
1580666135.126,246
1580666145.126,246
1580666155.126,246
1580666165.126,246
1580666175.126,246
1580666185.126,246
1580666195.126,246
1580666205.126,246
1580666215.126,246
1580666225.126,246
1580666235.126,246
1580666245.126,246
1580666255.126,246
1580666265.126,246
1580666275.126,247
1580666285.126,247
1580666295.126,247
1580666305.126,247
1580666315.126,247
1580666325.126,247
1580666335.126,247
1580666345.126,247
1580666355.126,247
1580666365.126,247
1580666375.126,247
1580666385.126,247
1580666395.126,247
1580666405.126,247
1580666415.126,247
1580666425.126,247
1580666435.126,247
1580666445.126,247
1580666455.126,247
1580666465.126,247
1580666475.126,247
1580666485.126,247
1580666495.126,247
1580666505.126,247
1580666515.126,247
1580666525.126,247
1580666535.126,247
1580666545.126,247
1580666555.126,247
1580666565.126,247
1580666575.126,247
1580666585.126,247
1580666595.126,248
1580666605.126,248
1580666615.126,248
1580666625.126,248
1580666635.126,248
1580666645.126,248
1580666655.126,248
1580666665.126,248
1580666675.126,248
1580666685.126,248
1580666695.126,248
1580666705.126,248
1580666715.126,248
1580666725.126,248
1580666735.126,248
1580666745.126,248
1580666755.126,248
1580666765.126,248
1580666775.126,248
1580666785.126,248
1580666795.126,248
1580666805.126,248
1580666815.126,248
1580666825.131,248
1580666835.126,248
1580666845.126,248
1580666855.126,248
1580666865.126,248
1580666875.126,248
1580666885.126,248
1580666895.126,249
1580666905.126,249
1580666915.126,249
1580666925.126,249
1580666935.126,249
1580666945.126,249
1580666955.126,249
1580666965.126,249
1580666975.126,249
1580666985.126,249
1580666995.126,249
1580667005.126,249
1580667015.126,249
1580667025.126,249
1580667035.126,249
1580667045.126,249
1580667055.126,249
1580667065.126,249
1580667075.126,249
1580667085.126,249
1580667095.126,249
1580667105.126,249
1580667115.126,249
1580667125.126,249
1580667135.126,249
1580667145.126,249
1580667155.126,249
1580667165.126,249
1580667175.126,249
1580667185.126,249
1580667195.126,249
1580667205.126,249
1580667215.126,249
1580667225.126,249
1580667235.126,250
1580667245.126,250
1580667255.126,250
1580667265.126,250
1580667275.126,250
1580667285.126,250
1580667295.126,250
1580667305.126,250
1580667315.126,250
1580667325.126,250
1580667335.126,250
1580667345.126,250
1580667355.126,250
1580667365.126,250
1580667375.126,250
1580667385.126,250
1580667395.126,250
1580667405.126,250
1580667415.126,250
1580667425.126,250
1580667435.126,250
1580667445.126,250
1580667455.126,250
1580667465.126,250
1580667475.126,250
1580667485.126,250
1580667495.126,250
1580667505.126,250
1580667515.126,250
1580667525.126,250
1580667535.126,250
1580667545.126,250
1580667555.126,250
1580667565.126,250
1580667575.126,250
1580667585.126,250
1580667595.126,250
1580667605.126,251
1580667615.133,251
1580667625.126,251
1580667635.126,251
1580667645.126,251
1580667655.126,251
1580667665.126,251
1580667675.126,251
1580667685.133,251
1580667695.126,251
1580667705.126,251
1580667715.126,252
1580667725.126,252
1580667735.126,252
1580667745.126,252
1580667755.126,252
1580667765.126,252
1580667775.126,252
1580667785.126,252
1580667795.126,252
1580667805.126,252
1580667815.126,252
1580667825.126,252
1580667835.126,252
1580667845.126,252
1580667855.126,253
1580667865.126,253
1580667875.126,253
1580667885.126,253
1580667895.126,253
1580667905.129,253
1580667915.126,253
1580667925.126,253
1580667935.126,253
1580667945.126,253
1580667955.126,253
1580667965.126,253
1580667975.126,254
1580667985.126,254
1580667995.126,254
1580668005.126,254
1580668015.126,254
1580668025.126,254
1580668035.126,254
1580668045.126,254
1580668055.126,254
1580668065.126,254
1580668075.126,254
1580668085.126,254
1580668095.126,254
1580668105.126,254
1580668115.126,254
1580668125.126,254
1580668135.126,254
1580668145.126,254
1580668155.126,255
1580668165.126,255
1580668175.126,255
1580668185.126,255
1580668195.126,255
1580668205.126,255
1580668215.126,255
1580668225.126,255
1580668235.126,255
1580668245.126,255
1580668255.126,256
1580668265.126,256
1580668275.126,256
1580668285.126,256
1580668295.126,256
1580668305.126,257
1580668315.126,257
1580668325.126,257
1580668335.126,257
1580668345.126,257
1580668355.126,257
1580668365.126,258
1580668375.126,258
1580668385.126,258
1580668395.126,258
1580668405.126,258
1580668415.126,258
1580668425.126,258
1580668435.126,259
1580668445.126,259
1580668455.126,259
1580668465.126,259
1580668475.126,259
1580668485.126,260
1580668495.126,260
1580668505.126,260
1580668515.126,260
1580668525.126,261
1580668535.126,261
1580668545.126,261
1580668555.126,261
1580668565.126,261
1580668575.126,261
1580668585.126,261
1580668595.126,261
1580668605.126,261
1580668615.126,261
1580668625.126,262
1580668635.126,262
1580668645.126,262
1580668655.126,262
1580668665.126,262
1580668675.126,262
1580668685.126,262
1580668695.126,262
1580668705.126,262
1580668715.126,262
1580668725.126,262
1580668735.126,263
1580668745.126,263
1580668755.126,263
1580668765.126,263
1580668775.126,263
1580668785.126,263
1580668795.126,263
1580668805.126,263
1580668815.126,263
1580668825.126,263
1580668835.126,263
1580668845.126,263
1580668855.126,263
1580668865.126,263
1580668875.126,263
1580668885.126,263
1580668895.126,263
1580668905.126,263
1580668915.126,263
1580668925.126,263
1580668935.126,263
1580668945.126,263
1580668955.126,263
1580668965.126,263
1580668975.126,263
1580668985.126,263
1580668995.126,264
1580669005.126,264
1580669015.126,264
1580669025.126,264
1580669035.126,264
1580669045.126,264
1580669055.126,264
1580669065.126,264
1580669075.126,264
1580669085.126,264
1580669095.126,264
1580669105.126,264
1580669115.126,264
1580669125.126,264
1580669135.126,264
1580669145.126,264
1580669155.126,264
1580669165.126,264
1580669175.126,264
1580669185.126,264
1580669195.126,264
1580669205.126,264
1580669215.126,264
1580669225.126,264
1580669235.126,264
1580669245.126,264
1580669255.126,264
1580669265.126,264
1580669275.126,264
1580669285.126,264
1580669295.126,264
1580669305.126,265
1580669315.126,265
1580669325.126,265
1580669335.126,265
1580669345.126,265
1580669355.126,265
1580669365.126,265
1580669375.126,265
1580669385.126,265
1580669395.126,265
1580669405.126,265
1580669415.126,265
1580669425.126,265
1580669435.126,265
1580669445.126,266
1580669455.126,266
1580669465.126,266
1580669475.126,266
1580669485.126,266
1580669495.126,266
1580669505.126,266
1580669515.126,266
1580669525.126,266
1580669535.126,266
1580669545.126,266
1580669555.126,266
1580669565.126,266
1580669575.126,266
1580669585.126,266
1580669595.126,267
1580669605.126,267
1580669615.126,267
1580669625.126,267
1580669635.133,267
1580669645.126,267
1580669655.126,267
1580669665.126,267
1580669675.126,267
1580669685.126,267
1580669695.126,267
1580669705.126,267
1580669715.126,267
1580669725.126,267
1580669735.126,267
1580669745.126,267
1580669755.126,267
1580669765.126,267
1580669775.126,268
1580669785.126,268
1580669795.126,268
1580669805.126,268
1580669815.126,268
1580669825.126,268
1580669835.126,268
1580669845.126,268
1580669855.126,268
1580669865.126,268
1580669875.126,268
1580669885.126,268
1580669895.126,268
1580669905.126,268
1580669915.126,268
