epoch,value
1579933527.095,0
1579933537.095,0
1579933547.095,0
1579933557.095,0
1579933567.095,24
1579933577.095,25
1579933587.096,26
1579933597.095,26
1579933607.095,36
1579933617.095,36
1579933627.095,37
1579933637.095,37
1579933647.095,38
1579933657.095,39
1579933667.095,40
1579933677.095,41
1579933687.095,42
1579933697.095,42
1579933707.095,43
1579933717.095,44
1579933727.095,44
1579933737.095,51
1579933747.095,68
1579933757.096,84
1579933767.095,100
1579933777.095,115
1579933787.095,130
1579933797.095,143
1579933807.095,143
1579933817.095,153
1579933827.095,154
1579933837.095,155
1579933847.095,155
1579933857.095,155
1579933867.095,155
1579933877.095,155
1579933887.095,155
1579933897.095,155
1579933907.095,155
1579933917.095,155
1579933927.095,155
1579933937.095,156
1579933947.095,156
1579933957.095,156
1579933967.095,156
1579933977.095,156
1579933987.095,156
1579933997.095,156
1579934007.095,156
1579934017.095,156
1579934027.095,156
1579934037.095,156
1579934047.095,156
1579934057.095,156
1579934067.095,156
1579934077.095,156
1579934087.095,156
1579934097.095,156
1579934107.095,156
1579934117.095,156
1579934127.095,156
1579934137.095,156
1579934147.095,156
1579934157.095,156
1579934167.095,156
1579934177.095,156
1579934187.095,156
1579934197.095,156
1579934207.095,156
1579934217.095,156
1579934227.095,156
1579934237.095,156
1579934247.095,156
1579934257.095,156
1579934267.095,156
1579934277.095,156
1579934287.095,156
1579934297.095,156
1579934307.095,156
1579934317.095,156
1579934327.095,156
1579934337.095,156
1579934347.095,157
1579934357.095,157
1579934367.095,157
1579934377.095,157
1579934387.095,157
1579934397.095,157
1579934407.095,157
1579934417.095,157
1579934427.095,157
1579934437.095,157
1579934447.095,157
1579934457.095,157
1579934467.095,157
1579934477.095,157
1579934487.095,157
1579934497.095,157
1579934507.095,157
1579934517.095,157
1579934527.095,157
1579934537.096,158
1579934547.095,158
1579934557.095,158
1579934577.095,158
1579934587.095,158
1579934597.097,158
1579934607.095,158
1579934617.095,158
1579934627.095,158
1579934637.095,158
1579934647.095,158
1579934657.095,158
1579934667.095,158
1579934677.095,158
1579934687.095,158
1579934697.095,158
1579934707.095,158
1579934717.095,158
1579934727.095,158
1579934737.095,158
1579934747.095,158
1579934757.097,158
1579934767.095,158
1579934777.095,158
1579934787.095,158
1579934797.095,158
1579934807.095,158
1579934817.095,158
1579934827.095,158
1579934837.095,158
1579934847.095,158
1579934857.095,158
1579934867.095,158
1579934877.095,158
1579934887.095,158
1579934897.095,158
1579934907.095,158
1579934917.095,158
1579934927.095,158
1579934937.095,158
1579934947.095,158
1579934957.097,158
1579934967.095,158
1579934977.095,158
1579934987.097,158
1579934997.095,158
1579935007.095,158
1579935017.095,158
1579935027.095,159
1579935037.095,159
1579935047.095,159
1579935057.095,159
1579935067.095,159
1579935077.095,159
1579935087.095,159
1579935097.095,159
1579935107.095,159
1579935117.095,159
1579935127.100,159
1579935137.095,159
1579935147.095,159
1579935157.095,159
1579935167.095,159
1579935177.095,159
1579935187.095,159
1579935197.096,159
1579935207.095,159
1579935217.095,159
1579935227.095,159
1579935237.095,159
1579935247.095,159
1579935257.097,159
1579935267.095,159
1579935277.095,159
1579935287.095,159
1579935297.095,159
1579935307.095,159
1579935317.095,159
1579935327.095,159
1579935337.095,160
1579935347.095,160
1579935357.095,160
1579935367.095,160
1579935377.095,160
1579935387.095,160
1579935397.095,160
1579935407.095,160
1579935417.095,160
1579935427.095,160
1579935437.095,160
1579935447.095,160
1579935457.095,160
1579935467.095,160
1579935477.095,160
1579935487.095,160
1579935497.095,160
1579935507.095,160
1579935517.095,160
1579935527.097,160
1579935537.095,160
1579935547.095,160
1579935557.095,160
1579935567.095,160
1579935577.095,160
1579935587.095,160
1579935597.095,160
1579935607.095,160
1579935627.095,160
1579935637.095,160
1579935647.095,160
1579935657.095,160
1579935667.095,160
1579935677.095,160
1579935687.095,160
1579935697.095,160
1579935707.095,160
1579935717.095,160
1579935727.095,160
1579935737.095,160
1579935747.095,160
1579935757.095,160
1579935767.095,161
1579935777.097,161
1579935787.095,161
1579935797.095,161
1579935807.095,161
1579935817.095,161
1579935827.095,161
1579935837.095,161
1579935847.095,161
1579935867.095,161
1579935877.095,161
1579935887.095,161
1579935897.095,161
1579935907.095,161
1579935917.095,161
1579935927.095,161
1579935937.095,161
1579935947.095,161
1579935957.095,161
1579935967.095,161
1579935977.095,161
1579935987.095,161
1579935997.095,161
1579936007.095,161
1579936017.096,161
1579936027.095,161
1579936037.095,161
1579936047.095,161
1579936057.095,161
1579936067.095,161
1579936077.095,161
1579936087.095,161
1579936097.095,161
1579936107.095,161
1579936117.095,161
1579936127.095,161
1579936137.095,161
1579936147.095,161
1579936157.095,161
1579936167.095,161
1579936177.095,161
1579936187.095,161
1579936197.095,161
1579936207.095,161
1579936217.095,161
1579936227.095,161
1579936237.095,161
1579936247.095,161
1579936257.095,161
