epoch,value
1579797874.231,50818
1579797884.212,50818
1579797894.213,50818
1579797904.213,50818
1579797914.213,50818
1579797924.212,50818
1579797934.212,50818
1579797944.215,50818
1579797954.212,50818
1579797964.212,50818
1579797974.212,50818
1579797984.212,50818
1579797994.212,50818
1579798004.212,50818
1579798014.212,50818
1579798024.212,50818
1579798034.212,50818
1579798044.213,50818
1579798054.212,50818
1579798064.213,50820
1579798074.212,50820
1579798084.212,50820
1579798094.213,50820
1579798104.212,50820
1579798114.212,50820
1579798124.212,50820
1579798134.212,50820
1579798144.212,50820
1579798154.212,50820
1579798164.212,50820
1579798174.212,50821
1579798184.214,50821
1579798194.212,50821
1579798204.212,50821
1579798214.213,50821
1579798224.212,50823
1579798234.212,50823
1579798244.212,50823
1579798254.213,50823
1579798264.212,50823
1579798274.212,50824
1579798284.212,50824
1579798294.212,50824
1579798304.213,50824
1579798314.213,50824
1579798324.212,50824
1579798334.212,50824
1579798344.212,50824
1579798354.212,50824
1579798364.212,50824
1579798374.212,50824
1579798384.212,50824
1579798394.212,50824
1579798404.212,50824
1579798414.214,50824
1579798424.212,50824
1579798434.212,50824
1579798444.213,50824
1579798454.214,50824
1579798464.212,50824
1579798474.213,50824
1579798484.212,50826
1579798494.212,50826
1579798504.212,50826
1579798514.212,50826
1579798524.212,50826
1579798534.211,50826
1579798544.213,50826
1579798554.212,50826
1579798564.212,50826
1579798574.212,50826
1579798584.213,50826
1579798594.214,50826
1579798604.212,50826
1579798614.214,50826
1579798624.212,50826
1579798634.212,50826
1579798644.212,50826
1579798654.212,50826
1579798664.212,50826
1579798674.213,50826
1579798684.212,50826
1579798694.212,50826
1579798704.212,50826
1579798714.213,50826
1579798724.213,50828
1579798734.212,50828
1579798744.212,50828
1579798754.214,50828
1579798764.212,50828
1579798774.212,50828
1579798784.212,50828
1579798794.213,50828
1579798804.212,50828
1579798814.212,50828
1579798824.212,50829
1579798834.212,50829
1579798844.213,50831
1579798854.212,50831
1579798864.212,50832
1579798874.213,50832
1579798884.212,50832
1579798894.212,50832
1579798904.213,50832
1579798914.212,50832
1579798924.212,50832
1579798934.212,50832
1579798944.213,50832
1579798954.212,50832
1579798964.212,50833
1579798974.212,50833
1579798984.212,50833
1579798994.212,50833
1579799004.212,50833
1579799014.212,50833
1579799024.213,50833
1579799034.212,50833
1579799044.212,50833
1579799054.212,50833
1579799064.212,50833
1579799074.212,50833
1579799084.212,50833
1579799094.212,50833
1579799104.212,50833
1579799114.212,50833
1579799124.215,50833
1579799134.215,50833
1579799144.212,50833
1579799154.212,50833
1579799164.213,50833
1579799174.212,50833
1579799184.212,50833
1579799194.212,50834
1579799204.212,50834
1579799214.212,50834
1579799224.212,50834
1579799234.212,50834
1579799244.213,50834
1579799254.212,50834
1579799264.212,50834
1579799274.212,50834
1579799284.212,50834
1579799294.213,50834
1579799304.212,50834
1579799314.212,50836
1579799324.212,50836
1579799334.212,50836
1579799344.215,50836
1579799354.212,50836
1579799364.212,50837
1579799374.212,50837
1579799384.212,50837
1579799394.213,50837
1579799404.212,50837
1579799414.212,50837
1579799424.213,50837
1579799434.212,50838
