epoch,value
1579921309.139,0
1579921319.137,0
1579921329.137,0
1579921339.137,1
1579921359.137,22
1579921369.137,25
1579921379.137,27
1579921399.137,49
1579921409.137,63
1579921419.137,65
1579921429.137,79
1579921439.137,94
1579921449.137,104
1579921459.137,105
1579921469.137,105
1579921479.137,115
1579921489.137,124
1579921499.137,131
1579921509.137,150
1579921519.137,154
1579921529.137,173
1579921539.137,175
1579921549.137,206
1579921559.144,212
1579921569.137,220
1579921589.137,276
1579921599.137,279
1579921609.137,287
1579921619.137,305
1579921629.137,330
1579921639.137,346
1579921649.137,346
1579921659.137,346
1579921669.137,346
1579921679.137,346
1579921689.137,346
1579921699.137,346
1579921709.144,346
1579921719.137,346
1579921729.137,346
1579921739.137,346
1579921749.137,346
1579921759.137,346
1579921769.137,346
1579921779.137,346
1579921789.137,346
1579921799.137,346
1579921809.137,346
1579921819.137,346
1579921829.137,346
1579921839.137,346
1579921849.137,346
1579921859.137,346
1579921869.137,346
1579921879.137,346
1579921889.137,346
1579921899.137,346
1579921909.137,346
1579921919.137,346
1579921929.137,346
1579921939.137,346
1579921949.137,346
1579921959.137,346
1579921969.137,346
1579921979.137,346
1579921989.137,346
1579921999.137,346
1579922009.137,346
1579922019.137,346
1579922029.137,346
1579922039.137,346
1579922049.137,346
1579922059.137,346
1579922069.137,346
1579922079.137,346
1579922089.137,346
1579922099.137,346
1579922109.137,347
1579922119.137,347
1579922129.137,347
1579922139.137,347
1579922149.137,347
1579922159.137,347
1579922169.137,347
1579922179.139,347
1579922189.137,347
1579922199.137,347
1579922209.137,347
1579922219.137,347
1579922229.137,347
1579922239.137,347
1579922249.137,347
1579922259.137,347
1579922269.137,347
1579922279.137,347
1579922289.137,347
1579922299.137,347
1579922309.137,347
1579922319.137,347
1579922329.137,347
1579922339.137,347
1579922349.137,347
1579922359.137,347
1579922369.137,347
1579922379.137,347
1579922389.137,347
1579922399.137,347
1579922409.137,347
1579922419.144,347
1579922429.137,347
1579922439.137,347
1579922449.137,347
1579922459.137,347
1579922469.137,347
1579922479.137,347
1579922489.137,347
1579922499.137,347
1579922509.137,347
1579922519.137,347
1579922529.137,347
1579922539.137,347
1579922549.137,347
1579922559.137,347
1579922569.137,347
1579922579.137,347
1579922589.137,347
1579922599.137,347
1579922609.144,347
1579922619.137,347
1579922629.137,347
1579922639.137,347
1579922649.137,347
1579922659.137,347
1579922669.137,347
1579922679.137,347
1579922689.137,347
1579922699.139,347
1579922709.137,347
1579922719.137,347
1579922729.137,347
1579922739.137,347
1579922749.137,347
1579922759.137,347
1579922769.137,347
1579922779.137,347
1579922789.137,347
1579922799.137,348
1579922809.137,348
1579922819.137,348
1579922829.137,348
1579922839.137,348
1579922849.137,348
1579922859.137,348
1579922869.137,348
1579922879.137,348
1579922889.137,348
1579922899.137,348
1579922909.137,348
1579922919.137,348
1579922929.137,348
1579922939.137,348
1579922949.137,348
1579922959.137,348
1579922969.137,348
1579922979.137,348
1579922989.137,348
1579922999.137,348
1579923009.137,348
1579923019.137,348
1579923029.137,348
1579923039.137,348
1579923049.137,348
1579923059.137,348
1579923069.137,348
1579923079.137,348
1579923089.137,348
1579923099.137,348
1579923109.137,348
1579923119.137,348
1579923129.137,349
1579923139.137,349
1579923149.137,349
1579923159.137,349
1579923169.137,349
1579923179.137,349
1579923189.137,349
1579923199.137,349
1579923209.137,349
1579923219.137,349
1579923229.141,349
1579923239.137,349
1579923249.137,349
1579923259.137,349
1579923269.137,349
1579923279.137,349
1579923289.137,349
1579923299.137,349
1579923309.137,349
1579923319.137,349
1579923329.137,349
1579923339.137,349
1579923349.137,349
1579923359.137,349
1579923369.137,349
1579923379.137,349
1579923389.137,349
1579923399.137,349
1579923409.137,349
1579923419.137,349
1579923429.137,349
1579923439.137,349
1579923449.137,349
1579923459.137,349
1579923469.137,349
1579923479.137,349
1579923489.137,349
1579923499.142,349
1579923509.137,349
1579923519.137,349
1579923529.137,349
1579923539.137,349
1579923549.144,349
1579923559.137,349
1579923569.141,349
1579923579.137,349
1579923589.137,349
1579923599.137,349
1579923609.137,349
1579923619.137,349
1579923629.137,349
1579923639.137,349
1579923649.137,349
1579923659.137,349
1579923669.137,349
1579923679.137,349
1579923689.137,349
1579923699.137,349
1579923709.137,349
1579923719.137,349
1579923729.137,349
1579923739.137,349
1579923749.137,349
1579923759.137,349
1579923769.137,349
1579923779.137,349
1579923789.137,349
1579923799.137,349
1579923809.137,349
1579923819.137,349
1579923829.137,349
1579923839.137,349
1579923849.137,349
1579923859.137,349
1579923869.137,349
1579923879.137,349
1579923889.137,349
1579923899.137,349
1579923909.137,349
1579923919.137,349
1579923929.137,349
1579923939.137,349
1579923949.137,349
1579923959.137,349
1579923969.137,349
1579923979.137,349
1579923989.137,349
1579923999.137,349
1579924009.137,349
1579924019.137,349
1579924029.137,349
1579924039.137,349
