epoch,value
1580486943.991,412843
1580486953.971,412843
1580486963.971,412843
1580486973.973,412843
1580486983.971,412843
1580486993.971,412845
1580487003.972,412845
1580487013.971,412845
1580487023.971,412846
1580487033.971,412846
1580487043.971,412846
1580487053.971,412846
1580487063.972,412846
1580487073.971,412846
1580487083.971,412847
1580487093.971,412849
1580487103.976,412849
1580487113.971,412849
1580487123.971,412849
1580487133.971,412850
1580487143.971,412850
1580487153.971,412850
1580487163.971,412850
1580487173.971,412850
1580487183.971,412850
1580487193.971,412850
1580487203.971,412850
1580487213.971,412851
1580487223.971,412851
1580487233.971,412852
1580487243.971,412852
1580487253.971,412853
1580487263.973,412853
1580487273.971,412854
1580487283.971,412854
1580487293.972,412855
1580487303.971,412856
1580487313.972,412856
1580487323.973,412856
1580487333.971,412857
1580487343.971,412859
1580487353.971,412859
1580487363.971,412860
1580487373.971,412861
1580487383.971,412862
1580487393.972,412862
1580487403.971,412863
1580487413.971,412863
1580487423.971,412864
1580487433.971,412864
1580487443.971,412864
1580487453.971,412865
1580487463.971,412866
1580487473.974,412866
1580487483.971,412866
1580487493.971,412866
1580487503.971,412867
1580487513.971,412867
1580487523.971,412869
1580487533.971,412870
1580487543.971,412871
1580487553.972,412871
1580487563.972,412872
1580487573.971,412873
1580487583.971,412873
1580487593.971,412874
1580487603.971,412874
1580487613.972,412874
1580487623.971,412874
1580487633.972,412874
1580487643.971,412874
1580487653.971,412875
1580487663.971,412876
1580487673.971,412876
1580487683.971,412876
1580487693.971,412878
1580487703.971,412879
1580487713.971,412879
1580487723.971,412879
1580487733.971,412880
1580487743.971,412880
1580487753.971,412880
1580487763.971,412880
1580487773.971,412880
1580487783.971,412882
1580487793.971,412882
1580487803.971,412882
1580487813.971,412882
1580487823.971,412882
1580487833.971,412882
1580487843.971,412883
1580487853.971,412884
1580487863.971,412884
1580487873.971,412884
1580487883.971,412884
1580487893.971,412885
1580487903.971,412885
1580487913.971,412886
1580487923.971,412886
1580487933.971,412886
1580487943.971,412886
1580487953.972,412888
1580487963.971,412890
1580487973.972,412893
1580487983.971,412894
1580487993.971,412894
1580488003.971,412894
1580488013.971,412896
1580488023.971,412896
1580488033.971,412897
1580488043.971,412898
1580488053.971,412898
1580488063.971,412898
1580488073.971,412898
1580488083.971,412898
1580488093.971,412899
1580488103.972,412899
1580488113.971,412899
1580488123.971,412900
1580488133.973,412900
1580488143.971,412902
1580488153.971,412903
1580488163.972,412904
1580488173.971,412905
1580488183.972,412905
1580488193.971,412905
1580488203.971,412905
1580488213.971,412905
1580488223.971,412906
1580488233.971,412906
1580488243.971,412907
1580488253.972,412907
1580488263.971,412907
1580488273.971,412907
1580488283.972,412909
1580488293.971,412910
1580488303.971,412910
1580488313.971,412911
1580488323.971,412911
1580488333.971,412911
1580488343.971,412911
1580488353.972,412912
1580488363.971,412913
1580488373.971,412913
1580488383.971,412914
1580488393.971,412915
1580488403.971,412916
1580488413.971,412916
1580488423.971,412916
1580488433.971,412917
1580488443.971,412917
1580488453.972,412918
1580488463.971,412918
1580488473.971,412918
1580488483.971,412918
1580488493.971,412920
1580488503.972,412923
