epoch,value
1580229401.400,311744
1580229411.382,311745
1580229421.381,311746
1580229431.381,311746
1580229441.382,311747
1580229451.381,311747
1580229461.381,311747
1580229471.381,311747
1580229481.381,311748
1580229491.381,311748
1580229501.381,311748
1580229511.383,311748
1580229521.381,311749
1580229531.381,311749
1580229541.382,311749
1580229551.381,311749
1580229561.381,311749
1580229571.381,311751
1580229581.381,311751
1580229591.381,311752
1580229601.381,311753
1580229611.382,311753
1580229621.381,311753
1580229631.381,311753
1580229641.381,311755
1580229651.381,311755
1580229661.382,311755
1580229671.382,311756
1580229681.381,311756
1580229691.381,311756
1580229701.381,311756
1580229711.384,311757
1580229721.381,311758
1580229731.381,311758
1580229741.381,311758
1580229751.381,311758
1580229761.381,311758
1580229771.382,311759
1580229781.381,311760
1580229791.381,311760
1580229801.381,311760
1580229811.381,311760
1580229821.381,311760
1580229831.381,311760
1580229841.381,311761
1580229851.381,311762
1580229861.381,311762
1580229871.381,311763
1580229881.381,311764
1580229891.382,311764
1580229901.381,311764
1580229911.381,311764
1580229921.381,311764
1580229931.381,311764
1580229941.381,311764
1580229951.382,311764
1580229961.382,311765
1580229971.382,311765
1580229981.381,311765
1580229991.381,311766
1580230001.381,311766
1580230011.382,311767
1580230021.381,311768
1580230031.384,311768
1580230041.383,311768
1580230051.381,311768
1580230061.383,311770
1580230071.381,311770
1580230081.382,311770
1580230091.381,311771
1580230101.382,311771
1580230111.381,311771
1580230121.381,311771
1580230131.382,311771
1580230141.381,311772
1580230151.381,311773
1580230161.381,311773
1580230171.381,311774
1580230181.383,311777
1580230191.381,311778
1580230201.381,311779
1580230211.381,311779
1580230221.382,311780
1580230231.381,311780
1580230241.381,311780
1580230251.381,311781
1580230261.381,311781
1580230271.381,311783
1580230281.381,311784
1580230291.381,311784
1580230301.381,311784
1580230311.382,311785
1580230321.381,311785
1580230331.381,311786
1580230341.381,311786
1580230351.384,311786
1580230361.381,311786
1580230371.381,311787
1580230381.381,311788
1580230391.381,311788
1580230401.381,311788
1580230411.382,311788
1580230421.383,311788
1580230431.381,311788
1580230441.381,311788
1580230451.381,311790
1580230461.381,311790
1580230471.381,311791
1580230481.381,311792
1580230491.381,311793
1580230501.381,311794
1580230511.381,311794
1580230521.381,311794
1580230531.381,311795
1580230541.383,311795
1580230551.381,311796
1580230561.381,311797
1580230571.381,311797
1580230581.382,311798
1580230591.383,311798
1580230601.383,311798
1580230611.385,311799
1580230621.382,311799
1580230631.381,311799
1580230641.382,311800
1580230651.381,311800
1580230661.381,311801
1580230671.381,311801
1580230681.381,311802
1580230691.382,311802
1580230701.382,311802
1580230711.381,311804
1580230721.382,311804
1580230731.381,311804
1580230741.381,311804
1580230751.381,311806
1580230761.382,311807
1580230771.381,311807
1580230781.381,311808
1580230791.381,311808
1580230801.381,311809
1580230811.381,311809
1580230821.381,311810
1580230831.382,311812
1580230841.384,311813
1580230851.383,311814
1580230861.381,311814
1580230871.381,311816
1580230881.381,311816
1580230891.382,311816
1580230901.382,311816
1580230911.381,311816
1580230921.382,311816
1580230931.381,311816
1580230941.382,311816
1580230951.381,311816
1580230961.382,311816
1580230971.382,311817
1580230981.381,311817
1580230991.381,311817
1580231001.382,311817
1580231011.381,311817
1580231021.381,311817
1580231031.381,311819
1580231041.382,311819
1580231051.381,311819
1580231061.381,311820
1580231071.381,311820
1580231081.381,311820
1580231091.381,311820
1580231101.381,311820
1580231111.381,311821
1580231121.381,311822
1580231131.381,311824
1580231141.382,311825
1580231151.381,311826
1580231161.381,311826
1580231171.381,311826
1580231181.385,311827
1580231191.381,311829
1580231201.381,311829
1580231211.381,311829
1580231221.381,311829
1580231231.381,311830
1580231241.381,311830
1580231251.383,311830
1580231261.384,311830
1580231271.381,311832
1580231281.382,311832
1580231291.382,311832
1580231301.381,311832
1580231311.381,311834
1580231321.381,311834
1580231331.381,311834
1580231341.381,311834
1580231351.382,311836
1580231361.381,311836
1580231371.381,311836
1580231381.381,311836
1580231391.381,311837
1580231401.381,311837
1580231411.381,311837
1580231421.381,311837
1580231431.383,311838
1580231441.381,311838
1580231451.382,311838
1580231461.381,311838
1580231471.382,311839
1580231481.383,311839
1580231491.381,311839
1580231501.382,311839
1580231511.381,311839
1580231521.381,311840
1580231531.381,311841
1580231541.381,311841
1580231551.381,311841
1580231561.381,311841
1580231571.382,311841
1580231581.381,311841
1580231591.382,311842
1580231601.383,311842
1580231611.381,311842
1580231621.382,311845
1580231631.381,311846
1580231641.381,311848
1580231651.381,311848
1580231661.381,311848
1580231671.381,311848
1580231681.383,311850
1580231691.381,311850
1580231701.381,311852
1580231711.381,311853
1580231721.384,311854
1580231731.383,311854
1580231741.382,311855
1580231751.381,311855
1580231761.381,311856
1580231771.381,311856
1580231781.382,311856
1580231791.381,311857
1580231801.382,311857
1580231811.382,311857
1580231821.381,311857
1580231831.381,311857
1580231841.381,311857
1580231851.382,311857
1580231861.382,311858
1580231871.381,311859
1580231881.381,311860
1580231891.381,311860
1580231901.381,311860
1580231911.381,311861
1580231921.381,311862
1580231931.381,311862
1580231941.381,311863
1580231951.381,311864
1580231961.382,311864
1580231971.381,311864
1580231981.381,311864
1580231991.381,311864
1580232001.381,311864
1580232011.384,311865
1580232021.386,311866
1580232031.382,311867
1580232041.381,311868
1580232051.381,311869
1580232061.381,311869
1580232071.382,311870
1580232081.381,311870
1580232091.381,311872
1580232101.381,311872
1580232111.383,311872
1580232121.381,311872
1580232131.383,311874
1580232141.381,311876
1580232151.381,311877
1580232161.383,311878
1580232171.381,311879
