epoch,value
1580526096.555,414355
1580526106.533,414356
1580526116.533,414356
1580526126.535,414356
1580526136.533,414356
1580526146.535,414357
1580526156.533,414357
1580526166.534,414357
1580526176.533,414358
1580526186.534,414359
1580526196.533,414360
1580526206.533,414360
1580526216.533,414360
1580526226.533,414360
1580526236.534,414361
1580526246.533,414362
1580526256.533,414362
1580526266.533,414362
1580526276.533,414362
1580526286.533,414364
1580526296.533,414365
1580526306.533,414365
1580526316.533,414366
1580526326.533,414366
1580526336.534,414367
1580526346.533,414367
1580526356.534,414368
1580526366.536,414368
1580526376.533,414370
1580526386.535,414370
1580526396.533,414370
1580526406.533,414370
1580526416.533,414370
1580526426.534,414371
1580526436.533,414371
1580526446.534,414372
1580526456.533,414372
1580526466.533,414372
1580526476.533,414372
1580526486.533,414372
1580526496.534,414372
1580526506.533,414372
1580526516.533,414372
1580526526.533,414372
1580526536.533,414373
1580526546.535,414373
1580526556.535,414375
1580526566.533,414375
1580526576.533,414376
1580526586.533,414376
1580526596.536,414377
1580526606.533,414377
1580526616.534,414377
1580526626.533,414378
1580526636.538,414378
1580526646.533,414378
1580526656.533,414378
1580526666.534,414378
1580526676.533,414378
1580526686.533,414378
1580526696.533,414380
1580526706.533,414380
1580526716.533,414381
1580526726.533,414382
1580526736.533,414382
1580526746.533,414383
1580526756.533,414383
1580526766.533,414383
1580526776.533,414384
1580526786.533,414384
1580526796.533,414384
1580526806.533,414384
1580526816.533,414384
1580526826.533,414385
1580526836.533,414385
1580526846.533,414385
1580526856.533,414385
1580526866.534,414386
1580526876.534,414386
1580526886.533,414386
1580526896.533,414388
1580526906.533,414388
1580526916.533,414389
1580526926.533,414390
1580526936.533,414390
1580526946.533,414391
1580526956.533,414392
1580526966.533,414392
1580526976.533,414393
1580526986.533,414393
1580526996.533,414394
1580527006.533,414394
1580527016.533,414397
1580527026.533,414397
1580527036.534,414398
1580527046.536,414399
1580527056.533,414399
1580527066.533,414399
1580527076.533,414399
1580527086.533,414399
1580527096.533,414400
1580527106.533,414401
1580527116.533,414401
1580527126.533,414401
1580527136.533,414402
1580527146.533,414403
1580527156.533,414404
1580527166.533,414404
1580527176.533,414405
1580527186.534,414405
1580527196.533,414405
1580527206.533,414405
1580527216.533,414405
1580527226.533,414405
1580527236.533,414405
1580527246.534,414405
1580527256.534,414405
1580527266.533,414405
1580527276.533,414405
1580527286.533,414408
1580527296.533,414410
1580527306.533,414410
1580527316.533,414410
1580527326.536,414410
1580527336.533,414411
1580527346.533,414411
1580527356.533,414412
1580527366.533,414412
1580527376.533,414412
1580527386.533,414414
1580527396.533,414415
1580527406.533,414417
1580527416.533,414417
1580527426.533,414418
1580527436.533,414419
1580527446.533,414420
1580527456.533,414421
1580527466.533,414422
1580527476.534,414423
1580527486.533,414424
1580527496.533,414424
1580527506.534,414424
1580527516.533,414424
1580527526.533,414425
1580527536.533,414426
1580527546.533,414428
1580527556.533,414429
1580527566.533,414430
1580527576.533,414431
1580527586.533,414432
1580527596.533,414433
1580527606.533,414433
1580527616.533,414434
1580527626.533,414434
1580527636.533,414436
1580527646.533,414436
1580527656.533,414436
1580527666.533,414438
1580527676.533,414438
1580527686.533,414438
1580527696.533,414438
1580527706.533,414438
1580527716.533,414439
1580527726.533,414439
1580527736.533,414439
1580527746.535,414441
1580527756.533,414442
1580527766.533,414443
1580527776.535,414443
1580527786.534,414444
1580527796.533,414444
1580527806.533,414444
1580527816.533,414445
1580527826.535,414445
1580527836.534,414447
1580527846.533,414447
1580527856.533,414448
1580527866.534,414448
1580527876.533,414449
1580527886.533,414449
1580527896.533,414449
1580527906.533,414450
1580527916.533,414450
1580527926.534,414450
1580527936.534,414451
1580527946.533,414452
1580527956.533,414454
1580527966.533,414455
1580527976.534,414456
1580527986.533,414456
1580527996.533,414457
1580528006.533,414458
1580528016.537,414458
1580528026.533,414458
1580528036.533,414458
1580528046.534,414458
1580528056.533,414458
1580528066.533,414459
1580528076.533,414459
1580528086.533,414461
1580528096.533,414463
1580528106.533,414463
1580528116.533,414463
1580528126.533,414464
1580528136.533,414464
1580528146.533,414465
1580528156.533,414467
1580528166.533,414467
1580528176.533,414467
1580528186.537,414467
1580528196.535,414468
1580528206.533,414469
1580528216.533,414470
1580528226.533,414470
1580528236.533,414470
1580528246.533,414470
1580528256.533,414471
1580528266.533,414471
1580528276.533,414471
1580528286.534,414472
1580528296.533,414472
1580528306.533,414472
1580528316.534,414472
1580528326.533,414473
1580528336.533,414473
1580528346.533,414473
1580528356.533,414474
1580528366.533,414474
1580528376.533,414474
1580528386.533,414474
1580528396.533,414475
1580528406.533,414476
1580528416.533,414476
1580528426.533,414477
1580528436.534,414477
1580528446.533,414477
1580528456.533,414477
1580528466.533,414477
1580528476.533,414477
1580528486.533,414478
1580528496.533,414478
1580528506.533,414478
1580528516.533,414480
1580528526.534,414480
1580528536.533,414480
1580528546.533,414480
1580528556.533,414480
1580528566.533,414481
1580528576.534,414481
1580528586.535,414482
1580528596.533,414483
1580528606.533,414484
1580528616.533,414485
1580528626.533,414486
1580528636.533,414486
1580528646.533,414487
1580528656.533,414487
1580528666.533,414487
1580528676.533,414488
1580528686.534,414490
1580528696.533,414490
1580528706.533,414490
1580528716.535,414491
1580528726.533,414491
1580528736.533,414491
1580528746.533,414491
1580528756.533,414491
1580528766.533,414491
1580528776.533,414492
1580528786.534,414493
1580528796.533,414494
1580528806.533,414495
1580528816.533,414495
1580528826.533,414496
1580528836.535,414497
1580528846.533,414497
1580528856.533,414498
1580528866.533,414498
1580528876.533,414498
1580528886.533,414498
1580528896.533,414498
1580528906.534,414499
1580528916.536,414499
1580528926.533,414501
1580528936.533,414502
1580528946.533,414503
1580528956.533,414504
1580528966.533,414504
1580528976.533,414504
1580528986.533,414504
1580528996.533,414506
1580529006.534,414506
1580529016.533,414508
1580529026.533,414508
1580529036.534,414509
1580529046.533,414510
1580529056.533,414512
1580529066.533,414513
1580529076.533,414513
1580529086.533,414514
1580529096.533,414514
1580529106.533,414514
1580529116.533,414515
1580529126.533,414515
1580529136.534,414515
1580529146.533,414516
1580529156.533,414516
1580529166.533,414517
1580529176.534,414517
1580529186.533,414517
1580529196.534,414519
1580529206.533,414519
1580529216.533,414519
1580529226.533,414519
1580529236.533,414521
1580529246.533,414521
1580529256.533,414523
1580529266.533,414524
1580529276.533,414525
1580529286.534,414526
1580529296.533,414526
1580529306.533,414526
1580529316.533,414526
1580529326.533,414526
1580529336.534,414527
1580529346.535,414528
1580529356.533,414528
1580529366.533,414528
1580529376.535,414530
1580529386.534,414531
1580529396.533,414532
1580529406.533,414532
1580529416.535,414533
1580529426.533,414534
1580529436.534,414534
1580529446.533,414536
1580529456.533,414537
1580529466.533,414537
1580529476.533,414538
1580529486.535,414538
1580529496.533,414540
1580529506.533,414542
1580529516.533,414542
1580529526.533,414543
1580529536.533,414544
1580529546.533,414544
1580529556.533,414545
1580529566.533,414546
1580529576.533,414546
1580529586.533,414546
1580529596.533,414546
1580529606.533,414547
1580529616.533,414548
1580529626.533,414548
1580529636.536,414549
1580529646.533,414550
1580529656.533,414551
1580529666.534,414552
1580529676.533,414552
1580529686.535,414552
1580529696.533,414552
1580529706.534,414552
1580529716.533,414553
1580529726.533,414553
1580529736.533,414554
1580529746.533,414555
1580529756.533,414555
1580529766.533,414557
1580529776.533,414558
1580529786.533,414559
1580529796.533,414559
1580529806.533,414560
1580529816.533,414560
1580529826.533,414561
1580529836.533,414561
1580529846.533,414561
1580529856.535,414561
1580529866.533,414563
1580529876.533,414563
1580529886.533,414564
1580529896.533,414565
1580529906.533,414565
1580529916.533,414566
1580529926.533,414569
1580529936.536,414570
1580529946.533,414570
1580529956.533,414571
1580529966.533,414571
1580529976.533,414572
1580529986.533,414573
1580529996.534,414573
1580530006.533,414573
1580530016.533,414574
1580530026.533,414574
1580530036.533,414575
1580530046.533,414575
1580530056.536,414576
1580530066.533,414576
1580530076.533,414576
1580530086.533,414576
1580530096.533,414577
1580530106.538,414578
1580530116.533,414578
1580530126.533,414579
1580530136.533,414580
1580530146.533,414580
1580530156.533,414582
1580530166.533,414585
1580530176.533,414586
1580530186.533,414588
1580530196.533,414588
1580530206.533,414589
1580530216.533,414589
1580530226.533,414591
1580530236.533,414592
1580530246.533,414592
1580530256.533,414593
1580530266.533,414593
1580530276.534,414593
1580530286.533,414594
1580530296.534,414594
1580530306.533,414594
1580530316.533,414595
1580530326.533,414596
1580530336.533,414596
1580530346.534,414597
1580530356.535,414597
1580530366.534,414598
1580530376.533,414598
1580530386.533,414599
1580530396.533,414599
1580530406.533,414600
1580530416.535,414600
1580530426.533,414600
1580530436.533,414601
1580530446.533,414601
1580530456.533,414602
1580530466.533,414602
1580530476.533,414603
1580530486.534,414603
1580530496.533,414604
1580530506.533,414604
1580530516.533,414605
1580530526.533,414605
1580530536.533,414605
1580530546.533,414605
1580530556.534,414606
1580530566.533,414606
1580530576.533,414606
1580530586.533,414607
1580530596.533,414608
1580530606.533,414608
1580530616.533,414609
1580530626.538,414609
1580530636.533,414609
1580530646.533,414609
1580530656.533,414610
1580530666.533,414611
1580530676.533,414611
1580530686.533,414612
1580530696.533,414612
1580530706.533,414612
1580530716.535,414613
1580530726.535,414613
1580530736.533,414613
1580530746.533,414613
1580530756.533,414614
1580530766.533,414614
1580530776.533,414614
1580530786.533,414615
1580530796.533,414615
1580530806.533,414616
1580530816.533,414616
1580530826.536,414618
1580530836.533,414618
1580530846.533,414618
1580530856.533,414620
1580530866.533,414620
1580530876.533,414620
1580530886.533,414621
1580530896.536,414622
1580530906.533,414623
1580530916.533,414624
1580530926.533,414625
1580530936.534,414625
1580530946.533,414625
1580530956.534,414625
1580530966.534,414627
1580530976.533,414628
1580530986.536,414628
1580530996.533,414628
1580531006.533,414628
1580531016.533,414631
1580531026.533,414631
1580531036.533,414632
1580531046.533,414632
1580531056.533,414632
1580531066.533,414634
1580531076.535,414634
1580531086.534,414635
1580531096.534,414636
1580531106.533,414639
1580531116.533,414639
1580531126.533,414639
1580531136.534,414639
1580531146.533,414640
1580531156.536,414641
1580531166.533,414642
1580531176.533,414645
1580531186.533,414646
1580531196.533,414646
1580531206.533,414647
1580531216.533,414648
1580531226.533,414649
1580531236.533,414649
1580531246.533,414649
1580531256.533,414649
1580531266.533,414650
1580531276.533,414651
1580531286.535,414651
1580531296.533,414651
1580531306.533,414651
1580531316.533,414651
1580531326.533,414651
1580531336.533,414652
1580531346.534,414654
1580531356.535,414654
1580531366.534,414655
1580531376.533,414655
1580531386.533,414656
1580531396.533,414656
1580531406.533,414656
1580531416.533,414656
1580531426.533,414658
1580531436.533,414658
1580531446.534,414659
1580531456.533,414661
1580531466.533,414661
1580531476.533,414662
1580531486.533,414663
1580531496.533,414664
1580531506.533,414664
1580531516.533,414665
1580531526.533,414666
1580531536.533,414666
1580531546.533,414667
1580531556.533,414667
1580531566.533,414667
1580531576.533,414668
1580531586.533,414668
1580531596.533,414668
1580531606.533,414669
1580531616.533,414669
1580531626.533,414670
1580531636.535,414670
1580531646.533,414670
1580531656.533,414670
1580531666.533,414673
1580531676.533,414673
1580531686.533,414674
1580531696.533,414676
1580531706.537,414677
1580531716.534,414678
1580531726.533,414678
1580531736.533,414678
1580531746.535,414678
1580531756.533,414680
1580531766.533,414680
1580531776.533,414680
1580531786.533,414680
1580531796.533,414680
1580531806.533,414680
1580531816.533,414681
1580531826.533,414683
1580531836.533,414684
1580531846.533,414684
1580531856.533,414684
1580531866.533,414685
1580531876.533,414685
1580531886.533,414685
1580531896.534,414685
1580531906.533,414686
1580531916.534,414690
1580531926.533,414691
1580531936.534,414691
1580531946.535,414692
1580531956.533,414692
1580531966.533,414693
1580531976.533,414694
1580531986.533,414694
1580531996.533,414695
1580532006.534,414696
1580532016.533,414698
1580532026.533,414699
1580532036.533,414700
1580532046.533,414701
1580532056.533,414702
1580532066.533,414703
1580532076.533,414705
1580532086.534,414706
1580532096.533,414707
1580532106.533,414708
1580532116.533,414709
1580532126.533,414709
1580532136.533,414709
1580532146.533,414709
1580532156.533,414711
1580532166.533,414712
1580532176.533,414713
1580532186.533,414714
1580532196.534,414714
1580532206.533,414716
1580532216.533,414716
1580532226.533,414717
1580532236.533,414718
1580532246.533,414720
1580532256.533,414721
1580532266.533,414723
1580532276.533,414724
1580532286.534,414725
1580532296.533,414725
1580532306.533,414725
1580532316.533,414725
1580532326.533,414725
1580532336.533,414725
1580532346.533,414725
1580532356.533,414727
1580532366.533,414728
1580532376.533,414730
1580532386.533,414731
1580532396.533,414731
1580532406.533,414732
1580532416.533,414732
1580532426.533,414733
1580532436.533,414733
1580532446.535,414734
1580532456.533,414734
1580532466.534,414736
1580532476.534,414736
1580532486.533,414737
1580532496.533,414737
1580532506.533,414738
1580532516.533,414738
1580532526.533,414738
1580532536.533,414740
1580532546.534,414740
1580532556.534,414741
1580532566.533,414742
1580532576.533,414743
1580532586.533,414744
1580532596.533,414745
1580532606.534,414746
1580532616.533,414747
1580532626.533,414747
1580532636.534,414748
1580532646.533,414748
1580532656.535,414750
1580532666.533,414751
1580532676.534,414753
1580532686.534,414753
1580532696.533,414754
1580532706.533,414755
1580532716.533,414756
1580532726.533,414756
1580532736.533,414756
1580532746.533,414757
1580532756.533,414758
1580532766.533,414758
1580532776.533,414758
1580532786.533,414758
1580532796.533,414758
1580532806.533,414759
1580532816.533,414760
1580532826.534,414760
1580532836.533,414760
1580532846.533,414760
1580532856.533,414760
1580532866.533,414762
1580532876.533,414762
1580532886.533,414764
1580532896.533,414764
1580532906.533,414764
1580532916.533,414765
1580532926.533,414765
1580532936.533,414765
1580532946.533,414766
1580532956.533,414767
1580532966.533,414768
1580532976.533,414768
1580532986.533,414769
1580532996.536,414769
1580533006.533,414770
1580533016.533,414770
1580533026.535,414770
1580533036.533,414770
1580533046.533,414770
1580533056.533,414770
1580533066.535,414770
1580533076.534,414770
1580533086.533,414770
1580533096.533,414770
1580533106.533,414771
1580533116.533,414771
1580533126.533,414772
1580533136.533,414772
1580533146.534,414772
1580533156.534,414772
1580533166.533,414774
1580533176.533,414774
1580533186.534,414774
1580533196.533,414775
1580533206.533,414775
1580533216.533,414776
1580533226.536,414776
1580533236.533,414776
1580533246.535,414778
1580533256.533,414778
1580533266.535,414778
1580533276.533,414779
1580533286.533,414779
1580533296.533,414779
1580533306.533,414779
1580533316.536,414779
1580533326.533,414781
1580533336.533,414782
1580533346.533,414782
1580533356.533,414784
1580533366.533,414784
1580533376.533,414784
1580533386.533,414784
1580533396.533,414784
1580533406.533,414784
1580533416.534,414784
1580533426.533,414785
1580533436.533,414786
1580533446.533,414787
1580533456.534,414787
1580533466.533,414788
1580533476.533,414788
1580533486.534,414788
1580533496.533,414788
1580533506.534,414789
1580533516.533,414789
1580533526.533,414790
1580533536.533,414791
1580533546.533,414792
1580533556.533,414792
1580533566.533,414792
1580533576.533,414793
1580533586.533,414794
1580533596.533,414794
1580533606.533,414796
1580533616.533,414797
1580533626.533,414797
1580533636.533,414798
1580533646.533,414798
1580533656.533,414799
1580533666.533,414800
1580533676.533,414800
1580533686.533,414801
1580533696.533,414801
1580533706.533,414802
1580533716.533,414802
1580533726.533,414802
1580533736.533,414803
1580533746.533,414804
1580533756.533,414804
1580533766.533,414805
1580533776.533,414806
1580533786.533,414806
1580533796.533,414807
1580533806.533,414808
1580533816.534,414808
1580533826.533,414809
1580533836.534,414810
1580533846.533,414811
1580533856.533,414811
1580533866.533,414812
1580533876.533,414814
1580533886.533,414816
1580533896.533,414816
1580533906.534,414818
1580533916.533,414819
1580533926.533,414819
1580533936.534,414819
1580533946.533,414819
1580533956.533,414820
1580533966.533,414821
1580533976.533,414821
1580533986.533,414821
1580533996.533,414821
1580534006.533,414821
1580534016.533,414822
1580534026.534,414822
1580534036.533,414822
1580534046.535,414823
1580534056.533,414825
1580534066.533,414825
1580534076.533,414825
1580534086.533,414826
1580534096.536,414826
1580534106.534,414827
1580534116.533,414828
1580534126.534,414830
1580534136.535,414830
1580534146.534,414832
1580534156.534,414832
1580534166.533,414832
1580534176.533,414832
1580534186.533,414833
1580534196.533,414833
1580534206.533,414833
1580534216.533,414835
1580534226.533,414836
1580534236.533,414836
1580534246.533,414838
1580534256.533,414840
