epoch,value
1580486973.674,0
1580486983.674,0
1580486993.674,0
1580487003.675,1
1580487013.674,1
1580487023.674,1
1580487033.674,2
1580487043.674,2
1580487053.675,2
1580487063.674,2
1580487073.674,2
1580487083.674,2
1580487093.674,2
1580487103.674,2
1580487113.674,3
1580487123.674,3
1580487133.674,3
1580487143.674,3
1580487153.674,3
1580487163.674,3
1580487173.674,3
1580487183.674,4
1580487193.674,4
1580487203.674,4
1580487213.674,4
1580487223.674,4
1580487233.674,5
1580487243.674,5
1580487253.674,5
1580487263.674,5
1580487273.674,5
1580487283.674,6
1580487293.674,6
1580487303.674,6
1580487313.674,6
1580487323.674,6
1580487333.674,6
1580487343.674,6
1580487353.674,6
1580487363.674,6
1580487373.674,6
1580487393.674,6
1580487403.674,6
1580487413.674,6
1580487423.674,6
1580487433.674,6
1580487443.674,6
1580487453.674,6
1580487463.674,6
1580487473.674,6
1580487483.674,6
1580487493.674,6
1580487503.674,6
1580487513.674,6
1580487523.674,6
1580487533.674,6
1580487543.674,6
1580487553.674,6
1580487563.674,6
1580487573.674,6
1580487583.674,6
1580487593.674,6
1580487603.674,6
1580487613.674,6
1580487623.674,6
1580487633.674,6
1580487643.674,6
1580487653.674,6
1580487663.674,6
1580487673.674,6
1580487683.674,6
1580487693.674,6
1580487703.674,6
1580487713.674,6
1580487723.674,6
1580487733.674,6
1580487743.674,6
1580487753.674,6
1580487763.674,6
1580487773.674,6
1580487783.674,6
1580487793.674,6
1580487803.674,6
1580487813.674,6
1580487823.674,6
1580487833.674,6
1580487843.674,7
1580487853.674,7
1580487863.674,7
1580487873.674,7
1580487883.674,7
1580487893.674,7
1580487903.674,7
1580487913.674,7
1580487923.674,7
1580487933.674,7
1580487943.674,7
1580487953.674,7
1580487963.674,7
1580487973.674,7
1580487983.674,7
1580487993.674,7
1580488003.674,7
1580488013.674,7
1580488023.674,7
1580488033.674,7
1580488043.674,7
1580488053.674,7
1580488063.674,7
1580488073.674,7
1580488083.674,7
1580488093.674,7
1580488103.674,7
1580488113.674,7
1580488123.674,7
1580488133.674,8
1580488143.674,8
1580488153.674,8
1580488163.674,8
1580488173.674,8
1580488183.674,8
1580488193.674,8
1580488203.674,8
1580488213.674,8
1580488223.674,8
1580488233.674,8
1580488243.674,8
1580488253.674,8
1580488263.674,8
1580488273.674,8
1580488283.674,8
1580488293.679,8
1580488303.674,8
1580488313.674,8
1580488323.674,8
1580488333.674,8
1580488343.674,8
1580488353.674,8
1580488363.674,8
1580488373.674,8
1580488383.674,8
1580488393.675,8
1580488403.674,8
1580488413.674,8
1580488423.674,8
1580488433.674,8
1580488443.674,8
1580488453.674,8
1580488463.674,8
1580488473.674,8
1580488483.674,8
1580488493.674,8
1580488503.674,9
