epoch,value
1580478156.101,411785
1580478166.083,411786
1580478176.084,411787
1580478186.082,411787
1580478196.082,411789
1580478206.082,411789
1580478216.082,411789
1580478226.082,411790
1580478236.085,411790
1580478246.082,411792
1580478256.083,411793
1580478266.082,411793
1580478276.082,411794
1580478286.082,411795
1580478296.082,411795
1580478306.082,411795
1580478316.082,411795
1580478326.082,411795
1580478336.082,411796
1580478346.084,411796
1580478356.083,411798
1580478366.082,411798
1580478376.082,411798
1580478386.082,411798
1580478396.082,411798
1580478406.082,411798
1580478416.082,411798
1580478426.082,411799
1580478436.082,411799
1580478446.082,411799
1580478456.082,411799
1580478466.082,411799
1580478476.082,411799
1580478486.082,411800
1580478496.082,411800
1580478506.082,411800
1580478516.082,411801
1580478526.082,411802
1580478536.082,411802
1580478546.082,411802
1580478556.082,411802
1580478566.082,411803
1580478576.082,411803
1580478586.086,411804
1580478596.082,411804
1580478606.083,411804
1580478616.082,411805
1580478626.082,411807
1580478636.082,411807
1580478646.082,411807
1580478656.084,411807
1580478666.084,411807
1580478676.082,411808
1580478686.082,411808
1580478696.082,411808
1580478706.082,411809
1580478716.082,411809
1580478726.082,411810
1580478736.082,411810
1580478746.082,411810
1580478756.082,411810
1580478766.082,411811
1580478776.082,411811
1580478786.082,411811
1580478796.082,411813
1580478806.082,411814
1580478816.082,411815
1580478826.082,411815
1580478836.082,411816
1580478846.082,411817
1580478856.082,411817
1580478866.083,411818
1580478876.083,411820
1580478886.082,411820
1580478896.082,411821
1580478906.082,411822
1580478916.082,411823
1580478926.082,411823
1580478936.082,411824
1580478946.082,411824
1580478956.082,411824
1580478966.082,411824
1580478976.082,411826
1580478986.082,411828
1580478996.082,411828
1580479006.082,411828
1580479016.084,411830
1580479026.082,411831
1580479036.082,411832
1580479046.082,411832
1580479056.082,411832
1580479066.082,411832
1580479076.082,411834
1580479086.082,411834
1580479096.082,411834
1580479106.082,411835
1580479116.082,411835
1580479126.082,411836
1580479136.082,411836
1580479146.082,411836
1580479156.082,411837
1580479166.082,411837
1580479176.082,411838
1580479186.082,411838
1580479196.082,411839
1580479206.082,411839
1580479216.082,411841
1580479226.082,411841
1580479236.082,411841
1580479246.082,411842
1580479256.082,411843
1580479266.082,411844
1580479276.082,411846
1580479286.084,411846
1580479296.083,411846
1580479306.082,411846
1580479316.084,411846
1580479326.083,411848
1580479336.082,411848
1580479346.082,411848
1580479356.082,411848
1580479366.082,411849
1580479376.082,411850
1580479386.082,411851
1580479396.082,411851
1580479406.082,411852
1580479416.082,411852
1580479426.082,411854
1580479436.082,411854
1580479446.085,411856
1580479456.082,411857
1580479466.082,411858
1580479476.082,411860
1580479486.082,411860
1580479496.082,411860
1580479506.082,411861
1580479516.083,411861
1580479526.082,411862
1580479536.082,411863
1580479546.083,411864
1580479556.082,411864
1580479566.082,411869
1580479576.084,411870
1580479586.082,411871
1580479596.082,411872
1580479606.083,411873
1580479616.082,411876
1580479626.082,411877
1580479636.082,411878
1580479646.083,411880
1580479656.082,411881
1580479666.082,411883
1580479676.082,411885
1580479686.082,411886
1580479696.082,411886
1580479706.082,411887
1580479716.082,411889
