epoch,value
1579803231.285,0
1579803241.285,0
1579803251.285,0
1579803261.285,2
1579803271.285,6
1579803281.285,6
1579803291.285,7
1579803301.285,16
1579803311.285,25
1579803321.286,28
1579803331.285,28
1579803341.285,29
1579803351.285,29
1579803361.285,37
1579803371.285,41
1579803381.285,45
1579803391.285,45
1579803401.285,50
1579803411.285,56
1579803421.285,66
1579803431.285,72
1579803441.285,83
1579803451.285,94
1579803461.285,105
1579803471.285,112
1579803481.285,114
1579803491.285,114
1579803501.285,117
1579803511.285,117
1579803521.285,117
1579803531.285,117
1579803541.285,123
1579803551.285,124
1579803561.285,129
1579803571.285,129
1579803581.285,129
1579803591.285,129
1579803601.285,129
1579803611.285,129
1579803621.289,129
1579803631.285,129
1579803641.285,129
1579803651.285,129
1579803661.285,129
1579803671.285,129
1579803681.285,129
1579803691.285,129
1579803701.285,129
1579803711.285,130
1579803721.285,130
1579803731.285,130
1579803741.285,130
1579803751.285,130
1579803761.285,130
1579803771.285,130
1579803781.285,130
1579803791.285,130
1579803801.285,130
1579803811.285,130
1579803821.285,130
1579803831.285,130
1579803841.285,130
1579803851.291,130
1579803861.285,130
1579803871.285,130
1579803881.285,130
1579803891.285,130
1579803901.285,130
1579803911.285,130
1579803921.285,130
1579803931.285,130
1579803941.285,130
1579803951.285,130
1579803961.285,130
1579803971.285,130
1579803981.285,130
1579803991.285,130
1579804001.285,130
1579804011.285,130
1579804021.285,130
1579804031.285,130
1579804041.285,130
1579804051.285,130
1579804061.285,130
1579804071.285,130
1579804081.285,130
1579804091.285,130
1579804101.285,130
1579804111.285,131
1579804121.285,131
1579804131.285,131
1579804141.285,131
1579804151.285,131
1579804161.285,131
1579804171.285,131
1579804181.285,131
1579804191.285,131
1579804201.285,131
1579804211.285,131
1579804221.285,131
1579804231.285,131
1579804241.291,131
1579804251.285,131
1579804261.291,131
1579804271.285,131
1579804281.285,131
1579804291.285,131
1579804301.286,131
1579804311.285,131
1579804321.285,131
1579804331.285,131
1579804341.285,131
1579804351.285,131
1579804361.285,131
1579804371.285,131
1579804381.285,132
1579804391.285,132
1579804401.285,132
1579804411.285,132
1579804421.285,132
1579804431.291,132
1579804441.285,132
1579804451.285,132
1579804461.285,132
1579804471.285,132
1579804481.285,132
1579804491.285,132
1579804501.285,132
1579804511.285,132
1579804521.285,132
1579804531.285,132
1579804541.285,132
1579804551.285,132
1579804561.285,132
1579804571.285,132
1579804581.285,132
1579804591.285,132
1579804601.285,132
1579804611.285,132
1579804621.285,132
1579804631.285,132
1579804641.285,132
1579804651.285,132
1579804661.285,132
1579804671.285,132
1579804681.285,133
1579804691.285,133
1579804701.285,133
1579804711.285,133
1579804721.285,133
1579804731.285,133
1579804741.285,133
1579804751.285,133
1579804761.285,133
