epoch,value
1579801454.079,0
1579801464.078,0
1579801474.078,0
1579801484.078,0
1579801494.078,6
1579801504.078,6
1579801524.078,9
1579801534.078,16
1579801544.078,17
1579801554.078,18
1579801564.078,19
1579801574.078,22
1579801584.078,36
1579801594.078,42
1579801604.078,42
1579801614.078,43
1579801624.078,49
1579801634.078,64
1579801644.084,64
1579801654.078,65
1579801664.078,68
1579801674.078,69
1579801684.078,72
1579801694.078,93
1579801704.078,93
1579801714.078,93
1579801724.078,98
1579801734.078,104
1579801744.078,106
1579801754.079,113
1579801764.078,113
1579801774.078,114
1579801784.078,114
1579801794.078,114
1579801804.078,114
1579801814.078,115
1579801824.078,115
1579801834.078,115
1579801844.078,115
1579801854.078,115
1579801864.078,115
1579801874.078,115
1579801884.078,115
1579801894.078,115
1579801904.078,115
1579801914.078,115
1579801924.085,116
1579801934.078,116
1579801944.078,116
1579801954.078,116
1579801964.078,116
1579801974.078,116
1579801984.081,116
1579801994.085,116
1579802004.078,116
1579802014.078,116
1579802024.079,116
1579802034.085,116
1579802044.078,116
1579802054.078,116
1579802064.078,116
1579802074.078,116
1579802084.078,116
1579802094.078,116
1579802104.078,116
1579802114.078,117
1579802124.078,117
1579802134.078,117
1579802144.078,117
1579802154.078,117
1579802164.078,117
1579802174.078,117
1579802184.078,117
1579802194.085,117
1579802204.078,117
1579802214.078,117
1579802224.078,117
1579802234.078,117
1579802244.078,117
1579802254.078,117
1579802264.078,117
1579802274.078,117
1579802284.078,117
1579802294.078,117
1579802304.078,117
1579802314.078,117
1579802324.078,117
1579802334.078,117
1579802344.078,117
1579802354.078,117
1579802364.078,117
1579802374.078,117
1579802384.078,117
1579802394.078,117
1579802404.078,117
1579802414.078,117
1579802424.078,117
1579802434.078,117
1579802444.078,117
1579802454.078,117
1579802464.078,117
1579802474.078,117
1579802484.078,117
1579802494.078,117
1579802504.078,117
1579802514.078,118
1579802524.078,118
1579802534.078,118
1579802544.078,118
1579802554.078,118
1579802564.078,118
1579802574.078,118
1579802584.081,118
1579802594.078,118
1579802604.078,118
1579802614.078,118
1579802624.078,118
1579802634.078,118
1579802644.078,118
1579802654.078,118
1579802664.078,118
1579802674.078,118
1579802684.078,118
1579802694.078,118
1579802704.078,118
1579802714.078,118
1579802724.078,118
1579802734.078,118
1579802744.078,118
1579802754.078,118
1579802764.078,118
1579802774.078,118
1579802784.085,118
1579802794.078,118
1579802804.078,118
1579802814.078,118
1579802824.078,118
1579802834.078,118
1579802844.078,118
1579802854.078,118
1579802864.078,118
1579802874.078,118
1579802884.078,118
1579802894.078,118
1579802904.078,118
1579802914.078,118
1579802924.078,118
1579802934.078,118
1579802944.078,118
1579802954.078,118
1579802964.078,118
1579802974.078,118
1579802984.078,119
