epoch,value
1580578252.993,0
1580578262.993,0
1580578272.993,0
1580578282.993,0
1580578292.993,0
1580578302.993,0
1580578312.993,0
1580578322.993,0
1580578332.993,0
1580578342.993,0
1580578352.992,0
1580578362.993,0
1580578372.993,0
1580578382.993,0
1580578392.993,0
1580578402.993,0
1580578412.993,0
1580578422.993,0
1580578432.993,0
1580578442.993,0
1580578462.993,0
1580578472.993,0
1580578482.993,0
1580578492.993,0
1580578502.993,0
1580578512.993,0
1580578522.993,0
1580578532.993,0
1580578542.993,0
1580578552.993,0
1580578562.993,0
1580578572.993,0
1580578582.993,0
1580578592.993,0
1580578602.993,0
1580578612.993,0
1580578622.993,0
1580578632.993,0
1580578642.993,0
1580578652.993,0
1580578662.993,0
1580578672.993,0
1580578682.993,0
1580578692.993,0
1580578702.993,0
1580578712.993,0
1580578722.993,0
1580578732.993,0
1580578742.993,0
1580578752.993,0
1580578762.993,0
1580578772.993,0
1580578782.993,0
1580578792.993,0
1580578802.993,0
1580578812.993,0
1580578822.993,0
1580578832.993,0
1580578842.993,0
1580578852.993,0
1580578862.993,0
1580578872.993,0
1580578882.993,0
1580578892.993,0
1580578902.993,0
1580578912.993,0
1580578922.993,0
1580578932.993,0
1580578942.993,0
1580578952.993,0
1580578962.993,0
1580578972.993,0
1580578982.993,0
1580578992.993,0
1580579002.993,0
1580579012.993,0
1580579022.993,0
1580579032.993,0
1580579042.993,0
1580579052.993,0
1580579062.993,0
1580579072.993,0
1580579082.993,0
1580579092.993,0
1580579102.993,0
1580579112.993,0
1580579122.993,0
1580579132.993,0
1580579142.993,0
1580579152.993,0
1580579162.993,0
1580579172.993,0
1580579182.993,0
1580579192.993,0
1580579202.993,0
1580579212.993,0
1580579222.993,0
1580579232.993,0
1580579242.993,0
1580579252.993,0
1580579262.993,0
1580579272.993,0
1580579282.993,0
1580579292.993,0
1580579312.993,1
1580579322.993,1
1580579332.993,1
1580579342.993,1
1580579352.993,1
1580579362.993,1
1580579372.993,1
1580579382.993,1
1580579392.993,1
1580579402.993,1
1580579412.993,1
1580579422.993,1
1580579442.993,1
1580579452.993,1
1580579462.993,1
1580579472.993,1
1580579482.993,1
1580579492.993,1
1580579502.993,1
1580579512.993,1
1580579522.993,1
1580579532.993,1
1580579542.993,1
1580579552.993,1
1580579562.993,1
1580579572.993,1
1580579582.993,1
1580579592.993,1
1580579602.993,1
1580579612.993,1
1580579622.993,1
1580579632.993,1
1580579642.993,1
1580579652.993,1
1580579662.993,1
1580579672.993,1
1580579682.993,1
1580579692.993,1
1580579702.993,1
1580579712.993,1
1580579722.993,1
1580579732.993,1
1580579742.993,1
1580579752.993,1
1580579762.993,1
1580579772.993,1
1580579782.993,1
1580579792.993,1
1580579802.993,1
1580579812.993,1
1580579822.993,1
1580579832.993,1
1580579842.993,1
1580579852.993,1
1580579862.993,1
1580579872.993,1
1580579882.993,1
1580579892.993,1
1580579902.993,1
1580579912.993,1
1580579922.993,1
1580579932.993,1
1580579942.993,1
1580579952.993,1
1580579962.993,1
1580579972.993,1
1580579982.993,1
1580579992.993,1
1580580012.993,1
1580580022.993,1
1580580032.993,1
1580580042.993,1
1580580052.993,1
1580580062.993,1
1580580072.993,1
1580580082.993,1
1580580092.993,1
1580580102.993,1
1580580112.993,1
1580580122.993,1
1580580132.993,1
1580580142.993,1
1580580152.993,1
1580580162.993,1
1580580172.993,1
1580580182.993,1
1580580192.993,1
1580580202.993,1
1580580212.993,1
1580580222.993,1
1580580232.993,1
1580580242.993,1
1580580252.993,1
1580580262.993,1
1580580272.993,1
1580580282.993,1
1580580292.993,1
1580580302.993,1
1580580312.993,2
1580580322.993,2
1580580332.993,2
1580580342.993,2
1580580352.993,2
1580580362.993,2
1580580372.993,2
1580580382.993,2
1580580392.993,2
1580580412.993,2
1580580422.993,2
1580580432.993,2
1580580442.993,2
1580580452.993,2
1580580462.993,2
1580580472.993,2
1580580482.993,2
1580580492.993,2
1580580502.993,2
1580580512.993,2
1580580522.993,2
1580580532.993,2
1580580542.993,2
1580580552.993,2
1580580562.993,2
1580580572.993,2
1580580582.993,2
1580580592.993,2
1580580602.993,2
1580580612.993,2
1580580622.993,2
1580580632.993,2
1580580642.993,2
1580580652.993,2
1580580662.993,2
1580580672.993,2
1580580682.993,2
1580580692.993,2
1580580702.993,2
1580580712.993,2
1580580722.993,2
1580580732.993,2
1580580742.993,2
1580580752.993,2
1580580762.993,2
1580580772.993,2
1580580782.993,2
1580580792.993,2
1580580802.993,2
1580580812.993,2
1580580822.993,2
1580580832.993,2
1580580842.993,2
1580580852.993,2
1580580862.993,2
1580580872.993,2
1580580882.993,2
1580580892.993,2
1580580902.993,2
1580580912.993,2
1580580922.993,2
1580580942.993,2
1580580952.993,2
1580580962.993,2
1580580972.993,2
1580580982.993,2
1580580992.993,2
1580581002.993,2
1580581012.993,2
1580581022.993,2
1580581032.993,2
1580581042.993,2
1580581052.993,2
1580581062.993,3
1580581072.993,3
1580581082.993,3
1580581092.993,3
1580581102.993,3
1580581112.993,3
1580581122.993,3
1580581132.993,3
1580581142.993,3
1580581152.993,3
1580581162.993,3
1580581172.993,3
1580581182.993,3
1580581192.993,3
1580581202.993,3
1580581212.993,3
1580581222.993,3
1580581232.993,3
1580581242.993,3
1580581252.993,3
1580581262.993,3
1580581272.993,3
1580581282.993,3
1580581292.993,3
1580581302.993,3
1580581312.993,3
1580581322.993,3
1580581332.993,3
1580581342.993,3
1580581352.993,3
1580581362.993,3
1580581372.993,3
1580581382.993,3
1580581392.993,3
1580581402.993,3
1580581412.993,3
1580581422.993,3
1580581432.993,3
1580581442.993,3
1580581452.993,3
1580581462.993,3
1580581472.993,3
1580581482.993,3
1580581492.993,3
1580581502.993,3
1580581512.993,3
1580581522.993,3
1580581532.993,3
1580581542.993,3
1580581552.993,3
1580581562.993,3
1580581572.993,3
1580581582.993,3
1580581592.993,3
1580581602.993,3
1580581612.993,3
1580581622.993,3
1580581632.993,3
1580581642.993,3
1580581652.993,3
1580581662.993,3
1580581672.993,3
1580581682.993,3
1580581692.993,3
1580581702.993,3
1580581712.993,3
1580581722.993,3
1580581732.993,3
1580581742.993,3
1580581752.993,3
1580581762.993,3
1580581772.993,3
1580581782.993,3
1580581792.993,3
1580581802.993,3
1580581812.993,3
1580581822.993,3
1580581832.993,3
1580581842.993,3
1580581852.993,3
1580581862.993,3
1580581872.993,3
1580581882.993,3
1580581892.993,3
1580581902.993,3
1580581912.993,3
1580581922.993,3
1580581932.993,3
1580581942.993,3
1580581952.993,3
1580581962.993,3
1580581972.993,3
1580581982.993,3
1580581992.993,3
1580582002.993,3
1580582012.993,4
1580582022.993,4
1580582032.993,4
1580582042.993,4
1580582052.993,4
1580582072.993,4
1580582082.993,4
1580582092.993,4
1580582102.993,4
1580582112.993,4
1580582122.993,4
1580582132.993,4
1580582142.993,4
1580582152.993,4
1580582162.993,4
1580582172.993,4
1580582182.993,4
1580582192.993,4
1580582202.993,4
1580582212.993,4
1580582222.993,4
1580582232.993,4
1580582242.993,4
1580582252.993,4
1580582262.993,4
1580582272.993,4
1580582282.993,4
1580582292.993,4
1580582302.993,4
1580582312.993,4
1580582322.993,4
1580582332.993,4
1580582342.993,4
1580582352.993,4
1580582362.993,4
1580582372.993,4
1580582382.993,4
1580582392.993,4
1580582402.993,4
1580582412.993,4
1580582422.993,4
1580582432.993,4
1580582442.993,4
1580582452.993,4
1580582462.993,4
1580582472.993,4
1580582482.993,4
1580582492.993,4
1580582502.993,4
1580582512.993,4
1580582522.993,4
1580582532.993,4
1580582542.993,4
1580582552.993,4
1580582562.993,4
1580582572.993,4
1580582582.993,4
1580582592.993,4
1580582612.993,4
1580582622.993,4
1580582632.993,4
1580582642.993,4
1580582652.993,4
1580582662.993,4
1580582672.993,4
1580582682.993,4
1580582702.993,4
1580582712.993,4
1580582722.993,4
1580582732.993,4
1580582742.993,4
1580582752.993,4
1580582762.993,4
1580582772.993,4
1580582782.993,4
1580582792.993,4
1580582802.993,4
1580582812.993,4
1580582822.993,4
1580582832.993,4
1580582842.993,4
1580582852.993,4
1580582862.993,4
1580582872.993,4
1580582882.993,4
1580582892.993,4
1580582902.993,4
1580582912.993,4
1580582922.993,4
1580582932.993,4
1580582942.993,4
1580582952.993,4
1580582962.993,4
1580582972.993,4
1580582982.993,4
1580582992.993,4
1580583002.993,4
1580583012.993,4
1580583022.993,4
1580583032.993,4
1580583042.993,4
1580583052.993,4
1580583062.993,4
1580583072.993,4
1580583082.993,4
1580583092.993,4
1580583102.993,4
1580583112.993,4
1580583122.993,4
1580583132.993,5
1580583142.993,5
1580583152.993,5
1580583162.993,5
1580583172.993,5
1580583182.993,5
1580583192.993,5
1580583202.993,5
1580583212.993,5
1580583222.993,5
1580583232.993,5
1580583242.993,5
1580583252.993,5
1580583262.993,5
1580583272.993,5
1580583282.993,5
1580583292.993,5
1580583302.993,5
1580583312.993,5
1580583322.993,5
1580583332.993,5
1580583342.993,5
1580583352.993,5
1580583362.993,5
1580583372.993,5
1580583382.993,5
1580583392.993,5
1580583402.993,5
1580583412.993,5
1580583422.993,5
1580583432.993,5
1580583442.993,5
1580583452.993,5
1580583462.993,5
1580583472.993,5
1580583482.993,5
1580583492.993,5
1580583502.993,5
1580583512.993,5
1580583522.993,5
1580583532.993,5
1580583542.993,5
1580583552.993,5
1580583562.993,5
1580583572.993,5
1580583582.993,5
1580583592.993,5
1580583602.993,5
1580583612.993,5
1580583622.993,5
1580583632.993,5
1580583642.993,5
1580583652.993,5
1580583662.993,5
1580583672.993,5
1580583682.993,5
1580583692.993,5
1580583702.993,5
1580583712.993,5
1580583722.993,5
1580583732.993,5
1580583742.993,5
1580583752.993,5
1580583762.993,5
1580583772.993,5
1580583782.993,5
1580583792.993,5
1580583802.993,6
1580583812.993,6
1580583822.993,6
1580583832.993,6
1580583842.993,6
1580583852.993,6
1580583862.993,6
1580583872.993,6
1580583882.993,6
1580583892.993,6
1580583902.993,6
1580583912.993,6
1580583922.993,6
1580583932.993,6
1580583942.993,6
1580583952.993,6
1580583962.993,6
1580583972.993,6
1580583982.993,6
1580583992.993,6
1580584002.993,6
1580584012.993,6
1580584022.993,6
1580584032.993,6
1580584042.993,6
1580584052.993,6
1580584062.993,6
1580584072.993,6
1580584082.993,6
1580584092.993,6
1580584102.993,6
1580584112.993,6
1580584122.993,6
1580584132.993,6
1580584142.993,6
1580584152.993,6
1580584162.993,6
1580584172.993,6
1580584182.993,6
1580584192.993,6
1580584202.993,6
1580584212.993,6
1580584222.993,6
1580584232.993,6
1580584242.993,6
1580584252.993,6
1580584262.993,6
1580584272.993,6
1580584282.993,6
1580584292.993,6
1580584302.993,6
1580584312.993,6
1580584322.993,6
1580584332.993,6
1580584342.993,6
1580584352.993,6
1580584362.993,6
1580584372.993,6
1580584382.993,6
1580584392.993,6
1580584402.993,6
1580584412.993,6
1580584422.993,6
1580584432.993,6
1580584442.993,6
1580584452.993,6
1580584462.993,6
1580584472.993,6
1580584482.993,6
1580584492.993,6
1580584502.993,6
1580584512.993,7
1580584522.993,7
1580584532.993,7
1580584542.993,7
1580584552.993,7
1580584562.993,7
1580584572.993,7
1580584582.993,7
1580584592.993,7
1580584602.993,7
1580584612.993,7
1580584622.993,7
1580584632.993,7
1580584642.993,7
1580584652.993,7
1580584662.993,7
1580584672.993,7
1580584682.993,7
1580584692.993,7
1580584702.993,7
1580584712.993,7
1580584722.993,7
1580584732.993,7
1580584742.993,7
1580584752.993,7
1580584762.993,7
1580584772.993,7
1580584782.993,7
1580584792.993,7
1580584802.993,7
1580584812.993,7
1580584822.993,7
1580584832.993,7
1580584842.993,7
1580584852.993,7
1580584862.993,7
1580584872.993,7
1580584882.993,7
1580584892.993,7
1580584902.993,7
1580584922.993,7
1580584932.993,7
1580584942.993,7
1580584952.993,7
1580584962.993,7
1580584972.993,7
1580584982.993,7
1580584992.993,7
1580585002.993,7
1580585012.993,7
1580585022.993,7
1580585032.993,7
1580585042.993,7
1580585052.993,7
1580585062.993,7
1580585072.993,7
1580585082.993,7
1580585092.993,7
1580585102.993,7
1580585112.993,7
1580585122.993,7
1580585132.993,7
1580585142.993,7
1580585152.993,7
1580585162.993,7
1580585172.993,7
1580585182.993,7
1580585192.993,7
1580585202.993,7
1580585212.993,7
1580585222.993,7
1580585232.993,7
1580585242.993,7
1580585252.993,7
1580585262.993,7
1580585272.993,7
1580585282.993,7
1580585292.993,7
1580585302.993,7
1580585312.993,8
1580585322.993,8
1580585332.993,8
1580585342.993,8
1580585352.993,8
1580585362.993,8
1580585372.993,8
1580585382.993,8
1580585392.993,8
1580585402.993,8
1580585412.993,8
1580585422.993,8
1580585432.993,8
1580585442.993,8
1580585452.993,8
1580585462.993,8
1580585472.993,8
1580585482.993,8
1580585492.993,8
1580585502.993,8
1580585512.993,8
1580585522.993,8
1580585532.993,8
1580585542.993,8
1580585552.993,8
1580585562.993,8
1580585572.993,8
1580585582.993,8
1580585592.993,8
1580585602.993,8
1580585612.993,8
1580585622.993,8
1580585632.993,8
1580585642.993,8
1580585652.993,8
1580585662.993,8
1580585672.993,8
1580585682.993,8
1580585692.993,8
1580585702.993,8
1580585712.993,8
1580585722.993,8
1580585732.993,8
1580585742.993,8
1580585752.993,8
1580585762.993,8
1580585772.993,8
1580585782.993,8
1580585792.993,8
1580585802.993,8
1580585812.993,8
1580585822.993,8
1580585832.993,8
1580585842.993,8
1580585852.993,8
1580585862.993,8
1580585872.993,8
1580585882.993,8
1580585892.993,8
1580585902.993,8
1580585912.993,8
1580585922.993,8
1580585932.993,8
1580585942.993,8
1580585952.993,8
1580585962.993,8
1580585972.993,8
1580585982.993,8
1580585992.993,8
1580586002.993,8
1580586012.993,8
1580586022.993,8
1580586032.993,8
1580586042.993,8
1580586052.993,8
1580586062.993,8
1580586072.993,8
1580586082.993,8
1580586092.993,8
1580586102.993,8
1580586112.993,8
1580586122.993,8
1580586132.993,8
1580586142.993,8
1580586152.993,8
1580586162.993,8
1580586172.993,8
1580586182.993,8
1580586192.993,8
1580586202.993,8
1580586212.993,8
1580586222.993,8
1580586232.993,8
1580586242.993,8
1580586252.993,8
1580586262.993,8
1580586272.993,8
1580586282.993,8
1580586292.993,8
1580586302.993,8
1580586312.993,8
1580586322.993,8
1580586332.993,8
1580586342.993,8
1580586352.993,8
1580586362.993,8
1580586372.993,8
1580586382.993,8
