epoch,value
1580239317.958,53661
1580239327.940,53662
1580239337.941,53662
1580239347.940,53662
1580239357.940,53662
1580239367.940,53662
1580239377.941,53662
1580239387.940,53662
1580239397.940,53662
1580239407.940,53662
1580239417.943,53662
1580239427.940,53662
1580239437.940,53662
1580239447.940,53662
1580239457.941,53662
1580239467.940,53662
1580239477.940,53662
1580239487.940,53663
1580239497.940,53663
1580239507.941,53663
1580239517.941,53663
1580239527.940,53664
1580239537.940,53664
1580239547.941,53664
1580239557.940,53664
1580239567.940,53664
1580239577.940,53664
1580239587.940,53664
1580239597.940,53664
1580239607.942,53665
1580239617.940,53665
1580239627.940,53665
1580239637.940,53666
1580239647.940,53666
1580239657.940,53666
1580239667.940,53666
1580239677.940,53666
1580239687.940,53666
1580239697.940,53666
1580239707.940,53666
1580239717.940,53666
1580239727.940,53666
1580239737.940,53666
1580239747.942,53666
1580239757.941,53666
1580239767.940,53666
1580239777.942,53666
1580239787.941,53666
1580239797.940,53666
1580239807.942,53666
1580239817.940,53666
1580239827.940,53666
1580239837.940,53666
1580239847.941,53667
1580239857.940,53667
1580239867.940,53668
1580239877.940,53668
1580239887.940,53668
1580239897.942,53668
1580239907.941,53670
1580239917.940,53670
1580239927.940,53670
1580239937.940,53670
1580239947.940,53670
1580239957.943,53670
1580239967.942,53670
1580239977.940,53670
1580239987.940,53670
1580239997.940,53670
1580240007.940,53670
1580240017.940,53670
1580240027.940,53670
1580240037.940,53670
1580240047.940,53670
1580240057.940,53670
1580240067.940,53670
1580240077.940,53670
1580240087.940,53670
1580240097.940,53670
1580240107.940,53670
1580240117.940,53670
1580240127.940,53670
1580240137.940,53670
1580240147.940,53672
1580240157.941,53672
1580240167.940,53672
1580240177.941,53672
1580240187.940,53672
1580240197.942,53672
1580240207.940,53672
1580240217.941,53672
1580240227.942,53672
1580240237.942,53672
1580240247.942,53672
1580240257.940,53673
1580240267.940,53673
1580240277.940,53673
1580240287.940,53673
1580240297.941,53673
1580240307.940,53673
1580240317.940,53673
1580240327.940,53673
1580240337.940,53673
1580240347.940,53673
1580240357.942,53673
1580240367.940,53673
1580240377.940,53673
1580240387.940,53673
1580240397.940,53673
1580240407.940,53673
1580240417.942,53673
1580240427.941,53674
1580240437.940,53674
1580240447.940,53675
1580240457.940,53675
1580240467.940,53675
1580240477.940,53675
1580240487.940,53676
1580240497.941,53676
1580240507.941,53676
1580240517.940,53677
1580240527.940,53677
1580240537.940,53677
1580240547.940,53678
1580240557.940,53678
1580240567.940,53678
1580240577.943,53678
1580240587.940,53679
1580240597.940,53681
1580240607.940,53681
1580240617.942,53681
1580240627.942,53682
1580240637.940,53682
1580240647.940,53682
1580240657.940,53682
1580240667.940,53682
1580240677.940,53682
1580240687.941,53682
1580240697.940,53682
1580240707.943,53682
1580240717.942,53682
1580240727.940,53682
1580240737.940,53682
1580240747.941,53682
1580240757.942,53682
1580240767.940,53682
1580240777.940,53682
1580240787.940,53682
1580240797.940,53682
1580240807.940,53682
1580240817.940,53682
1580240827.941,53682
1580240837.940,53682
1580240847.940,53683
1580240857.940,53683
1580240867.940,53684
1580240877.940,53684
1580240887.940,53684
1580240897.941,53684
1580240907.940,53684
1580240917.940,53684
1580240927.940,53684
1580240937.940,53684
1580240947.940,53684
1580240957.943,53684
1580240967.940,53684
1580240977.940,53684
1580240987.940,53684
1580240997.940,53685
1580241007.941,53685
1580241017.940,53685
1580241027.940,53685
1580241037.940,53685
1580241047.940,53686
1580241057.940,53686
1580241067.942,53686
1580241077.940,53688
1580241087.940,53691
1580241097.940,53692
1580241107.940,53692
1580241117.940,53693
1580241127.942,53693
1580241137.940,53693
1580241147.940,53693
1580241157.940,53694
1580241167.941,53695
1580241177.940,53695
1580241187.940,53695
1580241197.940,53695
1580241207.940,53695
1580241217.940,53695
1580241227.941,53695
1580241237.942,53695
1580241247.940,53695
1580241257.940,53695
1580241267.942,53695
1580241277.940,53695
1580241287.942,53695
1580241297.940,53695
1580241307.941,53695
1580241317.940,53695
1580241327.940,53695
1580241337.941,53696
1580241347.941,53696
1580241357.940,53696
1580241367.940,53696
1580241377.940,53696
1580241387.940,53696
1580241397.940,53696
1580241407.943,53696
1580241417.941,53696
1580241427.940,53696
1580241437.940,53696
1580241447.940,53696
1580241457.941,53696
1580241467.940,53696
1580241477.945,53696
1580241487.940,53696
1580241497.941,53696
1580241507.940,53696
1580241517.941,53696
1580241527.940,53696
1580241537.940,53696
1580241547.940,53696
1580241557.940,53696
1580241567.940,53696
1580241577.941,53696
1580241587.940,53696
1580241597.940,53696
1580241607.940,53696
1580241617.941,53696
1580241627.941,53696
1580241637.940,53696
1580241647.940,53696
1580241657.940,53696
1580241667.940,53696
1580241677.941,53696
1580241687.940,53696
1580241697.940,53696
1580241707.941,53697
1580241717.940,53697
1580241727.940,53697
1580241737.940,53697
1580241747.940,53697
1580241757.940,53697
1580241767.941,53697
1580241777.943,53697
1580241787.940,53697
1580241797.940,53697
1580241807.941,53697
1580241817.940,53697
1580241827.940,53697
1580241837.940,53697
1580241847.941,53697
1580241857.940,53697
1580241867.940,53697
1580241877.941,53697
1580241887.940,53697
1580241897.940,53697
1580241907.941,53697
1580241917.940,53697
1580241927.941,53697
1580241937.942,53697
1580241947.942,53697
1580241957.941,53697
1580241967.942,53697
1580241977.940,53697
1580241987.940,53697
1580241997.941,53697
1580242007.940,53697
1580242017.941,53697
1580242027.942,53697
1580242037.940,53697
1580242047.940,53697
1580242057.941,53697
1580242067.940,53697
1580242077.940,53697
