epoch,value
1580812825.156,0
1580812835.156,0
1580812845.157,0
1580812855.157,11
1580812875.157,27
1580812885.157,47
1580812895.156,53
1580812905.156,60
1580812915.157,74
1580812925.156,87
1580812935.156,99
1580812945.157,104
1580812955.161,112
1580812965.157,128
1580812975.157,128
1580812985.156,143
1580812995.156,153
1580813005.157,172
1580813015.156,195
1580813025.156,199
1580813035.156,212
1580813045.156,240
1580813055.156,251
1580813065.156,269
1580813075.156,275
1580813085.156,282
1580813095.156,287
1580813105.156,305
1580813115.156,315
1580813125.156,330
1580813135.156,344
1580813145.156,358
1580813155.156,358
1580813165.156,359
1580813175.156,359
1580813185.157,359
1580813195.156,360
1580813205.157,360
1580813215.156,360
1580813225.157,361
1580813235.156,362
1580813245.156,363
1580813255.156,363
1580813265.156,363
1580813275.160,363
1580813285.156,363
1580813295.156,363
1580813305.156,363
1580813315.157,363
1580813325.156,363
1580813335.156,364
1580813345.156,364
1580813355.156,364
1580813365.156,364
1580813375.156,364
1580813385.156,364
1580813395.156,364
1580813405.156,364
1580813415.156,364
1580813425.156,364
1580813435.156,364
1580813445.156,365
1580813455.156,365
1580813465.156,365
1580813475.156,365
1580813485.156,365
1580813495.157,365
1580813505.156,365
1580813515.156,365
1580813525.156,365
1580813535.156,365
1580813545.156,365
1580813555.156,365
1580813565.156,365
1580813575.156,365
1580813585.156,365
1580813595.156,365
1580813605.157,365
1580813615.156,365
1580813625.156,366
1580813635.156,366
1580813645.156,366
1580813655.156,366
1580813665.156,366
1580813675.156,366
1580813685.156,366
1580813695.156,366
1580813705.157,366
1580813715.156,366
1580813725.156,366
1580813735.156,366
1580813745.156,366
1580813755.156,366
1580813765.156,366
1580813775.156,366
1580813785.157,367
1580813795.156,367
1580813805.156,367
1580813815.156,367
1580813825.156,367
1580813835.157,367
1580813845.156,367
1580813855.156,367
1580813865.157,367
1580813875.156,367
1580813895.156,367
1580813905.156,367
1580813915.156,367
1580813925.156,367
1580813935.157,367
1580813945.157,368
1580813955.156,368
1580813965.156,368
1580813975.156,368
1580813985.156,368
1580813995.156,368
1580814005.156,368
1580814015.157,368
1580814025.157,368
1580814035.156,368
1580814045.157,368
1580814055.156,369
1580814065.156,369
1580814075.156,369
1580814085.156,369
1580814095.156,369
1580814105.156,369
1580814115.156,369
1580814125.157,370
1580814135.157,370
1580814145.156,370
1580814155.156,370
1580814165.156,370
1580814175.156,370
1580814185.156,370
1580814195.157,370
1580814205.156,370
1580814215.156,371
1580814225.156,371
1580814235.156,371
1580814245.156,371
1580814255.156,371
1580814265.156,371
1580814275.156,371
1580814285.156,371
1580814295.156,371
1580814305.156,371
1580814315.156,372
1580814325.156,372
1580814335.156,372
1580814345.156,372
