epoch,value
1580534464.149,0
1580534474.149,0
1580534484.149,0
1580534494.149,2
1580534504.149,2
1580534524.149,3
1580534534.149,6
1580534544.149,6
1580534554.149,6
1580534564.149,6
1580534574.149,7
1580534584.149,14
1580534594.149,20
1580534604.149,23
1580534614.149,27
1580534624.149,27
1580534634.149,27
1580534644.149,27
1580534654.149,28
1580534664.149,28
1580534674.149,28
1580534684.149,28
1580534694.149,28
1580534704.149,29
1580534714.149,30
1580534724.149,30
1580534734.149,31
1580534744.149,31
1580534754.149,32
1580534764.149,33
1580534774.149,33
1580534794.149,33
1580534804.149,33
1580534814.149,33
1580534824.149,33
1580534834.149,33
1580534844.149,33
1580534854.149,33
1580534864.149,34
1580534874.149,34
1580534884.149,34
1580534894.149,34
1580534904.149,34
1580534914.149,34
1580534924.149,34
1580534934.149,34
1580534944.149,34
1580534954.149,34
1580534964.149,34
1580534974.149,34
1580534984.149,34
1580534994.149,34
1580535004.149,34
1580535014.149,35
1580535024.149,35
1580535034.149,35
1580535044.149,35
1580535054.149,35
1580535064.149,35
1580535074.149,35
1580535084.149,35
1580535094.149,35
1580535104.149,35
1580535114.149,35
1580535124.149,35
1580535134.149,35
1580535144.149,35
1580535154.149,35
1580535164.149,35
1580535174.149,35
1580535184.149,35
1580535194.149,35
1580535204.149,35
1580535214.149,35
1580535224.149,35
1580535234.149,35
1580535244.149,35
1580535254.149,36
1580535264.149,36
1580535274.149,36
1580535284.149,36
1580535294.149,36
1580535304.149,36
1580535314.149,36
1580535324.149,36
1580535334.149,36
1580535344.149,36
1580535354.149,36
1580535364.149,36
1580535374.149,36
1580535384.149,36
1580535394.149,36
1580535404.149,36
1580535414.149,36
1580535424.149,36
1580535434.149,36
1580535444.149,36
1580535454.149,36
1580535464.149,36
1580535474.149,36
1580535484.149,36
1580535494.149,36
1580535504.149,36
1580535514.149,36
1580535524.149,37
1580535534.149,37
1580535544.149,37
1580535554.149,37
1580535564.149,37
1580535574.149,37
1580535584.149,37
1580535594.149,37
1580535604.149,37
1580535614.149,37
1580535624.149,37
1580535634.149,37
1580535644.149,37
1580535654.149,37
1580535664.149,37
1580535674.149,37
1580535684.149,37
1580535694.149,37
1580535704.149,37
1580535714.149,37
1580535724.149,37
1580535734.149,37
1580535744.149,37
1580535754.149,37
1580535764.149,37
1580535774.149,37
1580535784.149,37
1580535794.149,37
1580535804.149,37
1580535814.149,37
1580535824.149,37
1580535834.149,37
1580535844.149,37
1580535854.149,37
1580535864.149,37
1580535874.149,37
1580535884.149,37
1580535894.149,37
1580535904.149,37
1580535914.149,37
1580535924.149,37
1580535934.149,37
1580535944.149,37
1580535954.149,37
1580535964.149,37
1580535974.149,37
1580535984.149,37
1580535994.149,37
1580536004.152,37
1580536014.149,37
1580536024.149,37
1580536034.149,37
1580536044.149,37
1580536054.149,37
1580536064.149,38
1580536074.149,38
1580536084.149,38
1580536094.149,38
1580536104.149,38
1580536114.149,38
1580536124.149,38
1580536134.149,38
1580536144.149,38
1580536154.149,38
1580536164.149,38
1580536174.149,38
1580536184.149,38
1580536194.149,38
1580536204.149,38
1580536214.149,38
1580536224.149,38
1580536234.149,38
1580536244.149,38
1580536254.149,38
1580536264.149,38
1580536274.149,38
1580536284.149,38
1580536294.149,38
1580536304.149,38
1580536314.149,38
1580536324.149,38
1580536334.149,38
1580536344.149,38
1580536354.149,38
1580536364.149,38
1580536374.149,38
1580536384.149,38
1580536394.149,38
1580536404.149,38
1580536414.149,38
1580536424.149,38
1580536434.149,39
1580536444.149,39
1580536454.149,39
1580536464.149,39
1580536474.149,39
1580536484.149,39
1580536494.149,39
1580536504.149,39
1580536514.149,39
1580536524.149,39
1580536534.149,39
1580536544.149,39
1580536554.149,39
1580536564.149,39
1580536574.149,39
1580536584.149,39
1580536594.149,39
1580536604.149,39
1580536614.149,39
1580536624.149,39
1580536634.149,39
1580536644.149,39
1580536654.149,39
1580536664.149,39
1580536674.149,39
1580536684.149,39
1580536694.149,39
1580536704.149,39
1580536714.149,39
1580536724.149,39
1580536734.149,39
1580536744.149,39
1580536754.149,39
1580536764.149,39
1580536774.149,39
1580536784.149,39
1580536794.149,39
1580536804.149,39
1580536814.149,39
1580536824.149,39
1580536834.149,39
1580536844.149,39
1580536854.149,39
1580536864.149,40
1580536874.149,40
1580536884.149,40
1580536894.149,40
1580536904.149,40
1580536914.149,40
1580536924.149,40
1580536934.149,40
1580536944.149,40
1580536954.149,40
1580536964.149,40
1580536974.149,40
1580536984.149,40
1580536994.149,40
1580537004.149,40
1580537014.149,40
1580537024.149,40
1580537034.149,40
1580537044.149,40
1580537054.149,40
1580537064.149,40
1580537074.149,40
1580537084.149,40
1580537104.149,40
1580537114.149,40
1580537124.149,40
1580537134.149,40
1580537144.149,40
1580537154.149,40
1580537164.149,40
1580537174.149,40
1580537184.149,40
1580537194.149,40
1580537204.149,40
1580537214.149,40
1580537224.149,40
1580537234.149,40
1580537244.149,40
1580537254.149,40
1580537264.149,40
1580537274.149,40
1580537284.149,40
1580537294.149,40
1580537304.149,40
1580537314.149,40
1580537324.149,40
1580537334.149,40
1580537344.149,40
1580537354.149,40
1580537364.149,40
1580537374.149,40
1580537384.149,40
1580537394.149,40
1580537404.149,40
1580537414.149,40
1580537424.149,40
1580537434.149,40
1580537444.149,40
1580537454.149,40
1580537464.149,40
1580537474.149,40
1580537484.149,40
1580537494.149,41
1580537504.149,41
1580537514.149,41
1580537524.149,41
1580537534.149,41
1580537544.149,41
1580537554.149,41
1580537564.149,41
1580537574.149,41
1580537584.149,41
1580537594.149,41
1580537604.149,41
1580537614.149,41
1580537624.149,41
1580537634.149,41
1580537644.149,41
1580537654.149,41
1580537664.149,41
1580537674.149,41
1580537684.149,41
1580537694.149,41
1580537704.149,41
1580537714.149,41
1580537724.149,41
1580537734.149,41
1580537744.149,41
1580537754.149,41
1580537764.149,41
1580537774.149,41
1580537784.149,41
1580537794.149,41
1580537804.149,41
1580537814.149,41
1580537824.149,41
1580537834.149,42
1580537844.149,42
1580537854.149,42
1580537864.149,42
1580537874.149,42
1580537884.149,42
1580537894.149,42
1580537904.149,42
1580537914.149,42
1580537924.149,42
1580537934.149,42
1580537944.149,42
1580537954.149,42
1580537964.149,42
1580537974.149,42
1580537984.149,42
1580537994.149,42
1580538004.149,42
1580538014.149,42
1580538024.149,42
1580538034.149,42
1580538044.149,42
1580538054.149,42
1580538064.149,42
1580538074.149,42
1580538084.149,42
1580538094.149,42
1580538104.149,42
1580538114.149,42
1580538124.149,42
1580538134.149,42
1580538144.149,42
1580538154.149,42
1580538164.149,42
1580538174.149,42
1580538184.149,42
1580538194.149,42
1580538204.149,42
1580538214.149,42
1580538224.149,42
1580538234.149,42
1580538244.149,42
1580538254.149,42
1580538264.149,42
1580538284.149,42
1580538294.149,42
1580538304.149,42
1580538314.149,42
1580538324.149,43
1580538334.149,43
1580538344.149,43
1580538354.149,43
1580538364.149,43
1580538374.149,43
1580538384.149,43
1580538394.149,43
1580538404.149,43
1580538414.149,43
1580538424.149,43
1580538434.149,43
1580538444.149,43
1580538454.149,43
1580538464.149,43
1580538474.149,43
1580538484.149,43
1580538494.149,43
1580538504.149,43
1580538514.149,43
1580538524.149,43
1580538534.149,43
1580538544.149,43
1580538554.149,43
1580538564.149,43
1580538574.149,43
1580538584.149,43
1580538594.149,43
1580538604.149,43
1580538614.149,43
1580538624.149,44
1580538634.149,44
1580538644.149,44
1580538654.149,44
1580538664.149,44
1580538674.149,44
1580538684.149,44
1580538694.149,44
1580538704.149,44
1580538714.149,44
1580538724.149,44
1580538734.149,44
1580538744.149,44
1580538754.149,44
1580538764.149,44
1580538774.149,44
1580538784.149,44
1580538794.149,44
1580538804.149,44
1580538814.149,44
1580538824.149,44
1580538834.149,44
1580538844.149,44
1580538854.149,44
1580538864.149,44
1580538874.149,44
1580538884.149,44
1580538894.149,44
1580538904.149,44
1580538914.149,44
1580538924.149,45
1580538934.149,45
1580538944.149,45
1580538954.149,45
1580538964.149,45
1580538974.149,45
1580538984.149,45
1580538994.149,45
1580539004.149,45
1580539014.149,45
1580539024.149,45
1580539034.149,45
1580539044.149,45
1580539054.149,45
1580539064.149,45
1580539074.149,45
1580539084.149,45
1580539094.149,45
1580539104.149,45
1580539114.149,45
1580539124.149,45
1580539134.149,45
1580539144.149,45
1580539154.149,45
1580539164.149,45
1580539174.149,45
1580539184.149,46
1580539194.149,46
1580539204.149,46
1580539214.149,46
1580539224.149,46
1580539234.149,46
1580539244.149,46
1580539254.149,46
1580539264.149,46
1580539274.149,46
1580539284.149,46
1580539294.149,47
1580539304.149,47
1580539314.149,47
1580539324.149,47
1580539334.149,47
1580539344.149,47
1580539354.149,47
1580539364.149,47
1580539374.149,47
1580539384.149,47
1580539394.149,47
1580539404.149,47
1580539414.149,47
1580539424.149,47
1580539434.149,47
1580539444.149,47
1580539454.149,48
1580539464.149,48
1580539474.149,48
1580539484.149,48
1580539494.149,48
1580539504.149,48
1580539514.149,48
1580539524.149,48
1580539534.149,48
1580539544.149,48
1580539554.149,48
1580539564.149,48
1580539574.149,48
1580539584.149,48
1580539594.149,48
1580539604.149,48
1580539614.149,48
1580539624.149,48
1580539634.149,49
1580539644.149,49
1580539654.149,49
1580539664.149,49
1580539674.149,49
1580539684.149,49
1580539694.149,49
1580539704.149,49
1580539714.149,49
1580539724.149,49
1580539734.149,49
1580539744.149,49
1580539754.149,49
1580539764.149,49
1580539774.149,49
1580539784.149,49
1580539794.149,49
1580539804.149,49
1580539814.149,49
1580539824.149,49
1580539834.149,49
1580539844.149,50
1580539854.149,50
1580539864.149,50
1580539874.149,50
1580539884.149,50
1580539894.149,50
1580539904.149,50
1580539924.149,50
1580539934.149,50
1580539944.149,50
1580539954.149,50
1580539964.149,50
1580539974.149,50
1580539984.149,50
1580539994.149,50
1580540004.149,50
1580540014.149,50
1580540024.149,50
1580540034.149,50
1580540044.149,50
1580540054.149,50
1580540064.149,50
1580540074.149,50
1580540084.149,50
1580540094.149,50
1580540104.149,51
1580540114.149,51
1580540124.149,51
1580540134.149,51
1580540144.149,51
1580540154.149,51
1580540164.149,51
1580540174.149,51
1580540184.149,51
1580540194.149,51
1580540204.149,51
1580540214.149,51
1580540224.149,51
1580540234.149,51
1580540244.149,51
1580540254.149,51
1580540264.149,51
1580540274.149,51
1580540284.149,51
1580540294.149,51
1580540304.149,51
1580540314.149,51
1580540324.149,51
1580540334.149,51
1580540344.149,52
1580540354.149,52
1580540364.149,52
1580540374.149,52
1580540384.149,52
1580540394.149,52
1580540404.149,52
1580540414.149,52
1580540424.149,52
1580540434.149,52
1580540444.149,52
1580540454.149,52
1580540464.149,52
1580540474.149,52
1580540494.149,52
1580540504.149,52
1580540514.149,52
1580540524.149,52
1580540534.149,52
1580540544.149,52
1580540554.149,52
1580540564.149,52
1580540574.149,52
1580540584.149,52
1580540594.149,52
1580540604.149,52
1580540614.149,52
1580540624.149,52
1580540634.149,52
1580540644.149,52
1580540654.149,52
1580540664.149,52
1580540674.149,52
1580540684.149,52
1580540694.149,52
1580540704.149,52
1580540714.149,52
1580540724.149,52
1580540734.149,52
1580540744.149,52
1580540754.149,52
1580540764.149,52
1580540774.149,52
1580540784.149,52
1580540794.149,52
1580540804.149,52
1580540814.149,52
1580540824.149,52
1580540834.149,52
1580540844.149,52
1580540854.149,52
1580540864.149,53
1580540874.149,53
1580540884.149,53
1580540894.149,53
1580540904.149,53
1580540914.149,53
1580540924.149,53
1580540934.149,53
1580540944.149,54
1580540954.149,54
1580540964.149,54
1580540974.149,54
1580540984.149,54
1580540994.149,54
1580541004.149,54
1580541014.149,54
1580541024.149,54
1580541034.151,54
1580541044.149,54
1580541054.149,54
1580541064.149,54
1580541074.149,54
1580541084.149,54
1580541094.149,54
1580541104.149,54
1580541114.149,54
1580541124.149,54
1580541134.149,54
1580541144.149,54
1580541154.149,54
1580541164.149,54
1580541174.149,54
1580541184.149,54
1580541194.149,54
1580541204.149,54
1580541214.149,54
1580541224.153,54
1580541234.149,54
1580541244.149,54
1580541254.149,54
1580541264.149,54
1580541274.149,54
1580541284.149,54
1580541294.149,54
1580541304.149,54
1580541314.149,54
1580541324.149,54
1580541334.149,55
1580541344.149,55
1580541354.149,55
1580541364.149,55
1580541374.149,55
1580541384.149,55
1580541394.149,55
1580541404.149,55
1580541414.149,55
1580541424.149,55
1580541434.149,55
1580541444.149,55
1580541454.149,55
1580541464.149,55
1580541474.149,55
1580541484.149,55
1580541494.149,55
1580541504.149,55
1580541514.149,55
1580541524.149,55
1580541534.149,55
1580541544.149,55
1580541554.149,55
1580541564.149,55
1580541574.149,55
1580541584.149,55
1580541594.149,55
1580541604.149,55
1580541614.149,55
1580541624.149,55
1580541634.149,55
1580541644.149,56
1580541654.149,56
1580541664.149,56
1580541674.149,56
1580541684.149,56
1580541694.149,56
1580541704.149,56
1580541714.149,56
1580541724.149,56
1580541734.149,56
1580541744.149,56
1580541754.149,56
1580541764.149,56
1580541774.149,56
1580541784.149,56
1580541794.149,56
1580541804.149,56
1580541814.149,56
1580541824.149,56
1580541834.149,57
1580541844.149,57
1580541854.149,57
1580541864.149,57
1580541874.149,57
1580541884.149,57
1580541894.149,57
1580541904.149,57
1580541914.149,57
1580541924.149,57
1580541934.149,57
1580541944.149,57
1580541954.149,57
1580541964.149,57
1580541974.149,57
1580541984.149,58
1580541994.149,58
1580542004.149,58
1580542014.149,58
1580542024.149,58
1580542034.149,58
1580542044.149,58
1580542054.149,58
1580542064.149,58
1580542074.149,58
1580542084.148,58
1580542094.149,58
1580542104.149,58
1580542114.149,58
1580542124.149,58
1580542134.149,58
1580542144.149,58
1580542154.149,59
1580542164.149,59
1580542174.149,59
1580542184.149,59
1580542194.149,59
1580542204.149,59
1580542214.149,59
1580542224.149,59
1580542234.149,59
1580542244.149,59
1580542254.149,59
1580542264.149,59
1580542274.149,59
1580542284.149,59
1580542294.149,59
1580542304.149,59
1580542314.149,59
1580542324.149,59
1580542334.149,59
1580542344.149,59
1580542354.149,59
1580542364.149,59
1580542374.149,60
1580542384.149,60
1580542394.149,60
1580542404.149,60
1580542414.149,60
1580542424.149,60
1580542434.149,60
1580542444.149,60
1580542454.149,60
1580542464.149,60
1580542474.149,60
1580542484.149,60
1580542494.149,60
1580542504.149,60
1580542514.149,61
1580542524.149,61
1580542534.149,61
1580542544.149,61
1580542554.149,61
1580542564.149,61
1580542574.149,61
1580542584.149,61
1580542594.149,61
