epoch,value
1580753833.051,7101
1580753843.030,7101
1580753853.031,7101
1580753863.030,7101
1580753873.030,7101
1580753883.030,7101
1580753893.032,7101
1580753903.030,7101
1580753913.030,7101
1580753923.030,7101
1580753933.032,7101
1580753943.030,7101
1580753953.030,7101
1580753963.030,7101
1580753973.030,7101
1580753983.031,7101
1580753993.030,7101
1580754003.030,7101
1580754013.031,7101
1580754023.030,7101
1580754033.031,7101
1580754043.030,7101
1580754053.030,7101
1580754063.030,7101
1580754073.030,7101
1580754083.030,7101
1580754093.030,7101
1580754103.030,7101
1580754113.030,7101
1580754123.030,7101
1580754133.030,7101
1580754143.030,7101
1580754153.030,7101
1580754163.030,7101
1580754173.031,7101
1580754183.030,7101
1580754193.030,7101
1580754203.030,7101
1580754213.031,7101
1580754223.030,7101
1580754233.030,7101
1580754243.030,7101
1580754253.030,7101
1580754263.030,7101
1580754273.030,7101
1580754283.033,7101
1580754293.030,7101
1580754303.030,7101
1580754313.030,7101
1580754323.030,7101
1580754333.030,7101
1580754343.030,7101
1580754353.030,7101
1580754363.030,7101
1580754373.030,7101
1580754383.030,7101
1580754393.030,7101
1580754403.031,7101
1580754413.030,7101
1580754423.030,7101
1580754433.030,7101
1580754443.030,7101
1580754453.030,7101
1580754463.030,7101
1580754473.030,7101
1580754483.030,7101
1580754493.030,7101
1580754503.030,7101
1580754513.033,7101
1580754523.032,7101
1580754533.034,7101
1580754543.030,7101
1580754553.030,7101
1580754563.030,7101
1580754573.033,7101
1580754583.033,7101
1580754593.030,7101
1580754603.030,7101
1580754613.030,7101
1580754623.030,7101
1580754633.030,7101
1580754643.030,7101
1580754653.030,7101
1580754663.030,7101
1580754673.030,7101
1580754683.031,7101
1580754693.030,7101
1580754703.030,7101
1580754713.030,7101
1580754723.030,7101
1580754733.030,7101
1580754743.030,7101
1580754753.030,7101
1580754763.030,7101
1580754773.030,7101
1580754783.030,7101
1580754793.031,7101
1580754803.033,7101
1580754813.030,7101
1580754823.030,7101
1580754833.030,7101
1580754843.030,7101
1580754853.030,7101
1580754863.030,7101
1580754873.031,7101
1580754883.030,7101
1580754893.030,7101
1580754903.033,7101
1580754913.030,7101
1580754923.030,7101
1580754933.030,7101
1580754943.032,7101
1580754953.032,7101
1580754963.030,7101
1580754973.031,7101
1580754983.033,7101
1580754993.030,7101
1580755003.030,7101
1580755013.030,7101
1580755023.030,7101
1580755033.030,7101
1580755043.030,7101
1580755053.031,7101
1580755063.032,7102
1580755073.030,7102
1580755083.030,7102
1580755093.031,7103
