epoch,value
1580578253.195,0
1580578263.195,0
1580578273.195,0
1580578283.195,0
1580578293.195,0
1580578303.195,0
1580578313.195,0
1580578323.195,0
1580578333.195,0
1580578343.195,0
1580578353.195,0
1580578363.195,0
1580578373.195,0
1580578383.195,0
1580578393.195,0
1580578403.195,0
1580578413.195,0
1580578423.195,0
1580578433.195,0
1580578443.195,0
1580578453.195,0
1580578463.195,0
1580578473.195,0
1580578483.195,0
1580578493.195,0
1580578503.195,1
1580578513.195,1
1580578523.195,1
1580578533.195,1
1580578543.195,1
1580578553.195,1
1580578563.199,1
1580578573.195,1
1580578583.195,1
1580578593.195,1
1580578603.195,1
1580578613.195,1
1580578623.195,1
1580578633.195,1
1580578643.195,1
1580578653.195,1
1580578663.195,1
1580578673.195,1
1580578683.195,1
1580578693.199,2
1580578703.195,2
1580578723.195,2
1580578733.195,2
1580578743.195,2
1580578753.195,2
1580578763.195,2
1580578773.195,2
1580578783.195,2
1580578793.195,2
1580578803.195,2
1580578813.195,2
1580578823.195,2
1580578833.195,2
1580578843.195,2
1580578853.195,2
1580578863.195,2
1580578873.195,2
1580578883.195,2
1580578893.195,2
1580578903.195,2
1580578913.195,2
1580578923.195,2
1580578933.195,2
1580578943.195,2
1580578953.195,2
1580578963.197,3
1580578973.195,3
1580578983.199,3
1580578993.195,3
1580579003.195,3
1580579013.195,3
1580579023.195,3
1580579033.195,3
1580579043.195,3
1580579053.195,3
1580579063.195,3
1580579073.195,3
1580579083.195,3
1580579093.195,3
1580579103.195,3
1580579113.195,3
1580579123.195,3
1580579133.195,3
1580579143.195,3
1580579153.195,3
1580579163.195,3
1580579173.195,3
1580579183.195,4
1580579193.195,4
1580579203.195,4
1580579213.195,4
1580579223.195,4
1580579233.195,4
1580579243.195,4
1580579253.195,4
1580579263.195,4
1580579273.195,4
1580579283.195,4
1580579293.195,4
1580579303.195,4
1580579313.195,4
1580579323.195,4
1580579333.195,4
1580579343.195,4
1580579353.195,4
1580579363.195,4
1580579373.195,5
1580579383.195,5
1580579393.195,5
1580579403.195,5
1580579413.195,5
1580579423.195,5
1580579433.195,5
1580579443.195,5
1580579453.195,5
1580579463.195,5
1580579473.195,5
1580579483.195,5
1580579493.195,5
1580579503.195,5
1580579513.195,5
1580579523.195,5
1580579533.195,5
1580579543.195,5
1580579553.195,5
1580579563.195,5
1580579573.195,5
1580579583.195,5
1580579593.195,5
1580579603.195,5
1580579613.195,5
1580579623.195,5
1580579633.195,5
1580579643.195,5
1580579653.195,5
1580579663.195,5
1580579673.195,5
1580579683.195,5
1580579693.195,6
1580579703.195,6
1580579713.195,6
1580579723.195,6
1580579733.195,6
1580579743.195,6
1580579753.195,6
1580579763.195,6
1580579773.195,6
1580579783.195,6
1580579793.195,6
1580579803.195,6
1580579813.195,6
1580579823.195,6
1580579833.195,6
1580579843.195,6
1580579853.195,6
1580579863.195,6
1580579873.195,6
1580579883.195,6
1580579893.195,6
1580579903.195,6
1580579913.195,6
1580579923.195,6
1580579933.195,6
1580579943.195,6
1580579953.195,6
1580579963.195,7
1580579973.195,7
1580579983.195,7
1580579993.195,7
1580580003.195,7
1580580013.195,7
1580580023.195,7
1580580033.195,7
1580580043.195,7
1580580053.195,7
1580580063.195,7
1580580073.195,7
1580580083.195,7
1580580093.195,7
1580580103.195,7
1580580113.195,7
1580580123.195,7
1580580133.195,8
1580580143.195,8
1580580153.195,8
1580580163.195,8
1580580173.199,8
1580580183.195,8
1580580193.195,8
1580580203.195,8
1580580213.195,8
1580580223.195,8
1580580233.195,8
1580580243.195,8
1580580253.195,8
1580580263.195,8
1580580273.195,9
1580580283.195,9
1580580293.195,9
1580580303.195,9
1580580313.195,9
1580580323.195,9
1580580333.195,9
1580580343.195,9
1580580353.195,9
1580580363.195,9
1580580373.195,9
1580580383.195,9
1580580393.195,9
1580580403.195,9
1580580413.195,9
1580580423.195,9
1580580433.195,9
1580580443.195,9
1580580453.195,9
1580580463.195,10
1580580473.195,10
1580580483.195,10
1580580493.195,10
1580580503.195,10
1580580513.195,10
1580580523.195,10
1580580533.195,10
1580580543.195,10
1580580553.195,10
1580580563.195,10
1580580573.195,10
1580580583.195,10
1580580593.195,10
1580580603.195,10
1580580613.195,10
1580580623.195,10
1580580633.195,10
1580580643.195,10
1580580653.195,10
1580580663.195,10
1580580673.195,11
1580580683.195,11
1580580693.195,11
1580580703.199,11
1580580713.195,11
1580580723.196,11
1580580733.195,11
1580580743.195,11
1580580753.195,11
1580580763.195,11
1580580773.195,11
1580580783.195,11
1580580793.195,11
1580580813.195,11
1580580823.195,11
1580580833.195,11
1580580843.195,11
1580580853.195,12
1580580863.195,12
1580580873.195,12
1580580883.195,12
1580580893.196,12
1580580903.195,12
1580580913.195,12
1580580923.195,12
1580580933.195,12
1580580943.195,12
1580580953.195,12
1580580963.195,12
1580580973.195,12
1580580983.195,12
1580580993.195,12
1580581003.195,12
1580581013.195,12
1580581023.195,12
1580581033.195,12
1580581043.195,12
1580581053.195,12
1580581063.195,12
1580581073.195,13
1580581083.195,13
1580581093.195,13
1580581103.195,13
1580581113.195,13
1580581123.195,13
1580581133.195,13
1580581143.195,13
1580581153.195,13
1580581163.195,13
1580581173.195,13
1580581183.195,13
1580581193.195,13
1580581203.195,13
1580581213.195,13
1580581223.195,13
1580581233.195,13
1580581243.195,13
1580581253.195,13
1580581263.195,13
1580581273.195,13
1580581283.195,13
1580581293.195,14
1580581303.195,14
1580581313.195,14
1580581323.195,14
1580581333.195,14
1580581343.195,14
1580581353.195,14
1580581363.195,14
1580581373.195,14
1580581383.195,14
1580581393.195,14
1580581403.195,14
1580581413.195,14
1580581423.195,14
1580581433.195,14
1580581443.195,14
1580581453.195,14
1580581463.195,14
1580581473.195,14
1580581483.195,14
1580581493.195,14
1580581503.195,14
1580581513.195,14
1580581523.195,14
1580581533.195,15
1580581543.195,15
1580581553.195,15
1580581573.195,15
1580581583.195,15
1580581593.195,15
1580581603.195,15
1580581613.195,15
1580581623.195,15
1580581633.195,15
1580581643.195,15
1580581653.195,15
1580581663.195,15
1580581673.195,15
1580581683.195,15
1580581693.195,15
1580581703.195,15
1580581713.195,15
1580581723.195,16
1580581733.195,16
1580581743.195,16
1580581753.195,16
1580581763.195,16
1580581773.195,16
1580581783.195,16
1580581793.195,16
1580581803.195,16
1580581813.195,16
1580581823.195,16
1580581833.195,16
1580581843.195,16
1580581853.199,16
1580581863.195,16
1580581873.195,16
1580581883.195,16
1580581893.195,17
1580581903.195,17
1580581913.195,17
1580581923.195,17
1580581933.195,17
1580581943.195,17
1580581953.195,17
1580581963.195,17
1580581973.195,17
1580581983.198,17
1580581993.195,17
1580582003.195,17
1580582013.195,17
1580582023.195,17
1580582033.195,17
1580582043.195,17
1580582053.195,17
1580582063.195,17
1580582073.195,17
1580582083.195,17
1580582093.195,17
1580582103.195,17
1580582113.195,17
1580582123.195,17
1580582133.195,17
1580582143.195,17
1580582153.195,17
1580582163.195,18
1580582173.195,18
1580582183.195,18
1580582193.195,18
1580582203.195,18
1580582213.195,18
1580582223.195,18
1580582233.195,18
1580582243.195,18
1580582253.195,18
1580582263.195,18
1580582283.195,18
1580582293.195,19
1580582303.195,19
1580582313.195,19
1580582323.195,19
1580582333.195,19
1580582343.195,19
1580582353.195,19
1580582363.195,19
1580582373.195,19
1580582383.195,19
1580582393.195,19
1580582403.195,19
1580582413.195,19
1580582423.195,20
1580582433.195,20
1580582443.195,20
1580582453.195,20
1580582463.195,20
1580582473.195,20
1580582483.195,20
1580582493.195,20
1580582503.195,20
1580582513.196,20
1580582523.195,20
1580582533.195,20
1580582543.195,20
1580582553.195,20
1580582563.195,20
1580582573.195,20
1580582583.195,20
1580582593.195,20
1580582603.195,20
1580582613.195,20
1580582623.195,20
1580582633.195,20
1580582643.195,20
1580582653.195,21
1580582663.195,21
1580582673.195,21
1580582683.195,21
1580582693.195,21
1580582703.195,21
1580582713.195,21
1580582723.195,21
1580582733.195,21
1580582743.195,21
1580582753.195,21
1580582763.195,21
1580582773.195,21
1580582783.195,21
1580582793.195,21
1580582803.195,21
1580582813.195,21
1580582823.195,21
1580582833.195,22
1580582843.195,22
1580582853.195,22
1580582863.195,22
1580582873.198,22
1580582883.195,22
1580582893.195,22
1580582903.195,22
1580582913.195,22
1580582923.195,22
1580582933.195,22
1580582943.195,22
1580582953.195,22
1580582963.195,22
1580582973.195,22
1580582983.195,22
1580582993.195,22
1580583003.195,22
1580583013.195,22
1580583023.195,22
1580583033.195,22
1580583043.195,22
1580583053.195,22
1580583063.195,23
1580583073.195,23
1580583083.195,23
1580583093.199,23
1580583103.195,23
1580583113.195,23
1580583123.195,23
1580583133.195,23
1580583143.195,23
1580583153.195,23
1580583163.195,23
1580583173.195,23
1580583183.195,23
1580583193.195,23
1580583203.195,23
1580583213.195,23
1580583223.195,23
1580583233.195,23
1580583243.195,23
1580583253.195,23
1580583263.195,23
1580583273.195,23
1580583283.195,24
1580583293.195,24
1580583303.195,24
1580583313.195,24
1580583323.197,24
1580583333.195,24
1580583343.195,24
1580583353.195,24
1580583363.195,24
1580583373.195,24
1580583383.195,24
1580583393.195,24
1580583403.195,24
1580583413.195,24
1580583423.195,25
1580583433.195,25
1580583443.195,25
1580583453.195,25
1580583463.195,25
1580583473.195,25
1580583483.195,25
1580583493.195,25
1580583503.195,25
1580583513.195,25
1580583523.195,25
1580583533.195,25
1580583543.195,25
1580583553.199,25
1580583563.195,25
1580583573.197,26
1580583583.195,26
1580583593.195,26
1580583603.195,26
1580583613.196,26
1580583623.195,26
1580583633.195,26
1580583643.195,26
1580583653.195,26
1580583663.195,26
1580583673.195,26
1580583683.195,26
1580583693.195,26
1580583703.195,26
1580583713.195,26
1580583723.195,26
1580583733.195,26
1580583743.195,26
1580583753.195,26
1580583763.195,26
1580583773.195,26
1580583783.195,26
1580583793.195,26
1580583803.195,26
1580583813.195,26
1580583823.195,26
1580583833.195,27
1580583843.195,27
1580583853.195,27
1580583863.195,27
1580583873.195,27
1580583883.195,27
1580583893.195,27
1580583903.195,27
1580583913.195,27
1580583923.195,27
1580583933.195,27
1580583943.195,27
1580583953.195,27
1580583963.195,27
1580583973.195,27
1580583983.195,27
1580583993.195,27
1580584003.195,28
1580584013.198,28
1580584023.195,28
1580584033.195,28
1580584043.195,28
1580584053.195,28
1580584063.195,28
1580584073.195,28
1580584083.195,28
1580584093.195,28
1580584103.195,28
1580584113.195,28
1580584123.195,28
1580584133.195,28
1580584143.195,28
1580584153.195,28
1580584163.195,29
1580584173.195,29
1580584183.195,29
1580584193.195,29
1580584203.195,29
1580584213.196,29
1580584223.195,29
1580584233.195,29
1580584243.195,29
1580584253.195,29
1580584263.195,29
1580584273.195,29
1580584283.195,29
1580584293.195,29
1580584303.195,29
1580584313.195,29
1580584323.195,29
1580584333.195,29
1580584343.195,29
1580584353.195,29
1580584373.195,29
1580584383.195,29
1580584393.195,29
1580584403.195,29
1580584413.195,29
1580584423.195,30
1580584433.196,30
1580584443.195,30
1580584453.195,30
1580584463.195,30
1580584473.195,30
1580584483.195,30
1580584493.195,30
1580584503.195,30
1580584513.195,30
1580584523.195,30
1580584533.195,30
1580584543.195,30
1580584553.195,30
1580584563.195,30
1580584573.195,30
1580584583.195,30
1580584593.195,30
1580584603.195,30
1580584613.195,30
1580584623.195,30
1580584633.195,30
1580584643.196,31
1580584653.195,31
1580584663.195,31
1580584673.195,31
1580584683.195,31
1580584693.195,31
1580584703.195,31
1580584713.195,31
1580584723.195,31
1580584733.195,31
1580584743.195,31
1580584753.195,31
1580584763.195,31
1580584773.195,31
1580584783.195,31
1580584793.195,31
1580584803.195,31
1580584813.195,31
1580584823.195,32
1580584833.195,32
1580584843.195,32
1580584853.195,32
1580584863.195,32
1580584873.195,32
1580584883.195,32
1580584893.195,32
1580584913.195,32
1580584923.195,32
1580584933.195,32
1580584943.195,32
1580584953.195,32
1580584963.195,32
1580584973.195,32
1580584983.195,32
1580584993.195,32
1580585003.195,32
1580585013.195,32
1580585023.195,32
1580585033.195,32
1580585043.195,32
1580585053.195,32
1580585063.195,32
1580585073.195,32
1580585083.195,32
1580585093.195,32
1580585103.195,32
1580585113.195,32
1580585123.195,33
1580585133.195,33
1580585143.197,33
1580585153.195,33
1580585163.195,33
1580585173.195,33
1580585183.195,33
1580585193.195,33
1580585203.195,33
1580585213.195,33
1580585223.195,33
1580585233.195,33
1580585243.195,33
1580585253.195,33
1580585263.195,34
1580585273.195,34
1580585283.195,34
1580585293.195,34
1580585303.195,34
1580585313.195,34
1580585323.195,34
1580585333.195,34
1580585343.195,34
1580585353.195,34
1580585363.195,34
1580585373.195,34
1580585383.195,34
1580585393.195,34
1580585403.195,34
1580585413.195,34
1580585423.195,34
1580585433.195,34
1580585443.195,34
1580585453.195,34
1580585463.195,35
1580585473.195,35
1580585483.195,35
1580585493.195,35
1580585503.195,35
1580585513.195,35
1580585523.195,35
1580585533.195,35
1580585543.195,35
1580585553.195,35
1580585563.195,35
1580585573.195,35
1580585583.195,35
1580585593.195,35
1580585603.195,35
1580585613.195,35
1580585623.195,35
1580585633.195,35
1580585643.195,35
1580585653.195,35
1580585663.195,35
1580585673.195,35
1580585683.195,35
1580585693.195,35
1580585703.195,35
1580585713.195,35
1580585723.195,35
1580585733.196,35
1580585743.195,35
1580585753.195,35
1580585763.195,35
1580585773.199,35
1580585783.195,35
1580585793.195,36
1580585803.195,36
1580585813.196,36
1580585823.195,36
1580585833.195,36
1580585843.198,36
1580585853.195,36
1580585863.195,36
1580585873.195,36
1580585883.195,36
1580585893.195,37
1580585903.195,37
1580585913.195,37
1580585923.195,37
1580585933.195,37
1580585943.195,37
1580585953.195,37
1580585963.195,37
1580585973.195,37
1580585983.195,37
1580585993.195,37
1580586003.195,37
1580586013.195,37
1580586023.195,37
1580586033.195,37
1580586043.195,37
1580586053.195,38
1580586063.195,38
1580586073.195,38
1580586083.195,38
1580586093.195,38
1580586113.195,38
1580586123.195,38
1580586133.195,38
1580586143.195,38
1580586153.195,38
1580586163.195,38
1580586173.195,38
1580586183.195,38
1580586193.195,38
1580586203.195,38
1580586223.195,39
1580586233.195,39
1580586243.195,39
1580586253.195,39
1580586263.195,39
1580586273.195,39
1580586283.195,39
1580586293.195,39
1580586303.195,39
1580586313.195,39
1580586323.195,39
1580586333.195,39
1580586343.195,39
1580586353.195,39
1580586363.195,39
1580586373.195,39
1580586383.195,40
