epoch,value
1580237654.930,0
1580237664.930,0
1580237674.930,0
1580237684.930,0
1580237694.930,0
1580237704.930,0
1580237714.930,0
1580237724.930,0
1580237734.934,1
1580237744.930,1
1580237754.930,1
1580237764.930,1
1580237774.930,1
1580237784.933,1
1580237794.930,1
1580237804.930,1
1580237814.930,2
1580237824.930,2
1580237834.930,2
1580237844.930,2
1580237854.930,2
1580237864.930,2
1580237874.930,2
1580237884.930,2
1580237894.930,2
1580237904.930,2
1580237914.930,3
1580237924.930,3
1580237934.930,3
1580237944.930,3
1580237954.930,3
1580237964.930,3
1580237974.930,3
1580237984.930,3
1580237994.933,3
1580238004.930,3
1580238014.930,3
1580238024.930,3
1580238034.930,3
1580238044.930,3
1580238054.930,3
1580238064.930,3
1580238074.930,3
1580238084.930,3
1580238094.930,3
1580238104.930,3
1580238114.930,3
1580238124.930,3
1580238134.930,4
1580238144.930,4
1580238154.930,4
1580238164.930,4
1580238174.930,4
1580238184.930,4
1580238194.930,4
1580238204.930,4
1580238214.930,4
1580238224.930,4
1580238234.930,4
1580238244.934,4
1580238254.930,4
1580238264.930,4
1580238274.930,4
1580238284.930,4
1580238294.930,4
1580238304.930,4
1580238314.930,4
1580238324.930,4
1580238334.933,4
1580238344.930,4
1580238354.930,4
1580238364.930,4
1580238374.930,4
1580238384.930,4
1580238394.930,4
1580238404.930,4
1580238414.930,4
1580238434.930,4
1580238444.930,4
1580238454.930,4
1580238464.930,4
1580238484.930,4
1580238494.930,4
1580238504.930,4
1580238514.930,4
1580238524.930,4
1580238534.930,4
1580238544.930,4
1580238554.930,4
1580238564.930,5
1580238574.930,5
1580238584.930,5
1580238594.930,5
1580238604.930,5
1580238614.930,5
1580238624.930,5
1580238634.930,5
1580238644.930,5
1580238654.930,5
1580238664.930,5
1580238674.930,5
1580238684.930,5
1580238694.930,5
1580238704.930,5
1580238714.930,5
1580238724.930,5
1580238734.930,5
1580238744.930,5
1580238754.930,5
1580238764.930,5
1580238774.930,5
1580238784.930,5
1580238794.930,5
1580238804.930,5
1580238814.930,5
1580238824.930,5
1580238834.930,5
1580238844.930,5
1580238854.930,5
1580238864.930,5
1580238874.930,5
1580238884.937,5
1580238894.930,5
1580238904.930,5
1580238914.930,5
1580238924.930,5
1580238934.930,5
1580238944.930,5
1580238954.930,6
1580238964.930,6
1580238974.930,6
1580238984.930,6
1580238994.930,6
1580239004.930,6
1580239014.930,6
1580239024.930,6
1580239034.930,6
1580239044.930,6
1580239054.930,6
