epoch,value
1580343789.845,324985
1580343799.825,324985
1580343809.824,324985
1580343819.823,324985
1580343829.823,324987
1580343839.823,324988
1580343849.822,324988
1580343859.822,324991
1580343869.823,324991
1580343879.822,324992
1580343889.822,324992
1580343899.822,324993
1580343909.824,324993
1580343919.825,324993
1580343929.822,324993
1580343939.822,324994
1580343949.822,324994
1580343959.823,324995
1580343969.823,324995
1580343979.823,324996
1580343989.822,324997
1580343999.822,324998
1580344009.823,324999
1580344019.825,324999
1580344029.823,325000
1580344039.822,325000
1580344049.823,325001
1580344059.824,325002
1580344069.822,325002
1580344079.822,325002
1580344089.824,325002
1580344099.822,325002
1580344109.823,325003
1580344119.822,325003
1580344129.822,325006
1580344139.822,325006
1580344149.822,325007
1580344159.823,325007
1580344169.823,325007
1580344179.823,325007
1580344189.822,325008
1580344199.822,325008
1580344209.822,325010
1580344219.822,325010
1580344229.822,325010
1580344239.822,325010
1580344249.824,325011
1580344259.822,325011
1580344269.822,325012
1580344279.822,325012
1580344289.822,325012
1580344299.823,325013
1580344309.822,325013
1580344319.822,325014
1580344329.823,325014
1580344339.823,325014
1580344349.824,325016
1580344359.822,325016
1580344369.822,325016
1580344379.822,325017
1580344389.825,325017
1580344399.822,325017
1580344409.822,325017
1580344419.822,325017
1580344429.822,325017
1580344439.824,325018
1580344449.822,325018
1580344459.822,325018
1580344469.822,325018
1580344479.822,325018
1580344489.822,325018
1580344499.823,325019
1580344509.823,325019
1580344519.825,325020
1580344529.822,325020
1580344539.822,325020
1580344549.822,325021
1580344559.822,325021
1580344569.822,325021
1580344579.822,325021
1580344589.822,325022
1580344599.822,325022
1580344609.823,325022
1580344619.822,325023
1580344629.823,325023
1580344639.823,325023
1580344649.822,325023
1580344659.823,325024
1580344669.823,325024
1580344679.822,325024
1580344689.822,325024
1580344699.822,325024
1580344709.823,325025
1580344719.822,325025
1580344729.822,325025
1580344739.822,325026
1580344749.822,325026
1580344759.822,325026
1580344769.822,325026
1580344779.822,325026
1580344789.822,325026
1580344799.824,325026
1580344809.823,325027
1580344819.823,325028
1580344829.825,325028
1580344839.824,325028
1580344849.823,325029
1580344859.823,325030
1580344869.822,325031
1580344879.822,325031
1580344889.823,325032
1580344899.823,325032
1580344909.822,325033
1580344919.824,325034
1580344929.824,325034
1580344939.822,325036
1580344949.825,325037
1580344959.822,325038
1580344969.822,325038
1580344979.822,325040
1580344989.822,325040
1580344999.822,325040
1580345009.823,325040
1580345019.823,325040
1580345029.824,325040
1580345039.827,325040
1580345049.822,325042
1580345059.822,325042
1580345069.824,325042
1580345079.822,325042
1580345089.822,325042
1580345099.822,325042
1580345109.822,325042
1580345119.823,325042
1580345129.822,325043
1580345139.822,325044
1580345149.822,325045
1580345159.822,325046
1580345169.822,325046
1580345179.823,325046
1580345189.823,325046
1580345199.822,325047
1580345209.823,325047
1580345219.824,325047
1580345229.823,325047
1580345239.823,325048
1580345249.823,325048
1580345259.822,325050
1580345269.824,325050
1580345279.823,325050
1580345289.822,325050
1580345299.823,325051
1580345309.822,325051
1580345319.822,325051
1580345329.824,325052
1580345339.822,325053
1580345349.822,325053
1580345359.822,325054
1580345369.822,325054
1580345379.822,325055
1580345389.822,325055
1580345399.823,325055
1580345409.823,325055
1580345419.822,325056
1580345429.823,325056
1580345439.823,325058
1580345449.822,325059
1580345459.822,325061
1580345469.824,325061
1580345479.825,325062
1580345489.822,325062
1580345499.823,325062
1580345509.822,325062
1580345519.823,325062
1580345529.822,325062
1580345539.822,325062
1580345549.822,325063
1580345559.822,325063
1580345569.824,325063
1580345579.822,325064
1580345589.823,325064
1580345599.823,325066
1580345609.822,325066
1580345619.822,325066
1580345629.823,325067
1580345639.823,325069
1580345649.822,325069
1580345659.822,325069
1580345669.822,325069
1580345679.822,325069
1580345689.822,325069
1580345699.822,325070
1580345709.824,325071
1580345719.822,325072
1580345729.822,325072
1580345739.822,325072
1580345749.822,325072
1580345759.822,325072
1580345769.822,325072
1580345779.823,325073
1580345789.827,325074
1580345799.822,325074
1580345809.826,325076
1580345819.823,325077
1580345829.822,325077
1580345839.822,325078
1580345849.823,325080
1580345859.822,325081
1580345869.822,325082
1580345879.822,325082
1580345889.823,325082
1580345899.822,325082
1580345909.823,325082
1580345919.822,325084
1580345929.822,325084
1580345939.822,325084
1580345949.822,325084
1580345959.822,325084
1580345969.822,325084
1580345979.822,325084
1580345989.823,325084
1580345999.823,325084
1580346009.823,325084
1580346019.822,325085
1580346029.822,325086
1580346039.823,325087
1580346049.822,325088
1580346059.822,325088
1580346069.825,325088
1580346079.825,325089
1580346089.825,325090
1580346099.822,325090
1580346109.822,325090
1580346119.822,325091
1580346129.823,325092
1580346139.822,325093
1580346149.822,325093
1580346159.822,325095
1580346169.822,325095
1580346179.823,325096
1580346189.824,325096
1580346199.823,325096
1580346209.822,325096
1580346219.822,325096
1580346229.822,325098
1580346239.822,325098
1580346249.822,325098
1580346259.822,325098
1580346269.826,325099
1580346279.822,325101
1580346289.823,325101
1580346299.824,325102
1580346309.822,325102
1580346319.822,325102
1580346329.822,325102
1580346339.822,325102
1580346349.825,325102
1580346359.822,325102
1580346369.822,325102
1580346379.824,325102
1580346389.822,325102
1580346399.823,325104
1580346409.823,325104
1580346419.822,325105
1580346429.825,325106
1580346439.822,325107
1580346449.822,325107
1580346459.822,325108
1580346469.822,325108
1580346479.823,325108
1580346489.822,325109
1580346499.822,325111
1580346509.824,325111
1580346519.824,325112
1580346529.823,325112
1580346539.822,325113
1580346549.822,325114
1580346559.822,325114
1580346569.822,325114
1580346579.823,325115
1580346589.822,325116
1580346599.823,325116
1580346609.823,325116
1580346619.822,325118
1580346629.826,325118
1580346639.823,325118
1580346649.823,325118
1580346659.822,325118
1580346669.822,325118
1580346679.823,325119
1580346689.822,325119
1580346699.822,325119
1580346709.824,325122
1580346719.822,325122
1580346729.823,325122
1580346739.824,325122
1580346749.823,325123
1580346759.823,325123
1580346769.823,325125
1580346779.822,325125
1580346789.823,325126
1580346799.823,325126
1580346809.822,325126
1580346819.822,325127
1580346829.822,325127
1580346839.824,325127
1580346849.822,325127
1580346859.823,325128
1580346869.822,325128
1580346879.824,325128
1580346889.823,325129
1580346899.822,325132
1580346909.822,325132
1580346919.823,325132
1580346929.823,325133
1580346939.825,325133
1580346949.822,325134
1580346959.822,325134
1580346969.822,325134
1580346979.822,325135
1580346989.824,325135
1580346999.823,325136
1580347009.824,325136
1580347019.822,325136
1580347029.826,325137
1580347039.823,325137
1580347049.824,325137
1580347059.823,325138
1580347069.822,325138
1580347079.822,325138
1580347089.823,325138
1580347099.825,325140
1580347109.823,325140
1580347119.824,325140
1580347129.825,325141
1580347139.823,325141
1580347149.822,325141
1580347159.823,325143
1580347169.822,325143
1580347179.823,325143
1580347189.824,325144
1580347199.823,325144
1580347209.823,325144
1580347219.822,325144
1580347229.822,325144
1580347239.822,325145
1580347249.823,325145
1580347259.822,325146
1580347269.822,325147
1580347279.823,325148
1580347289.822,325148
1580347299.822,325148
1580347309.825,325148
1580347319.822,325150
1580347329.822,325151
1580347339.822,325152
1580347349.822,325152
1580347359.822,325152
1580347369.823,325153
1580347379.822,325155
1580347389.822,325156
1580347399.823,325156
1580347409.822,325156
1580347419.823,325156
1580347429.822,325158
1580347439.822,325159
1580347449.822,325159
1580347459.822,325159
1580347469.822,325159
1580347479.824,325159
1580347489.822,325159
1580347499.822,325160
1580347509.822,325162
1580347519.822,325162
1580347529.823,325162
1580347539.822,325162
1580347549.822,325164
1580347559.825,325164
1580347569.822,325166
1580347579.822,325166
1580347589.823,325166
1580347599.822,325166
1580347609.824,325167
1580347619.823,325167
1580347629.823,325168
1580347639.822,325168
1580347649.825,325170
1580347659.822,325171
1580347669.823,325172
1580347679.822,325172
1580347689.822,325173
1580347699.822,325173
1580347709.822,325174
1580347719.822,325174
1580347729.824,325176
1580347739.822,325176
1580347749.823,325176
1580347759.823,325178
1580347769.823,325178
1580347779.824,325178
1580347789.824,325179
1580347799.823,325179
1580347809.822,325179
1580347819.823,325180
1580347829.822,325181
1580347839.822,325181
1580347849.822,325181
1580347859.822,325182
1580347869.822,325182
1580347879.823,325182
1580347889.823,325182
1580347899.823,325182
1580347909.822,325182
1580347919.822,325184
1580347929.823,325185
1580347939.822,325186
1580347949.822,325187
1580347959.822,325188
1580347969.822,325190
1580347979.826,325190
1580347989.822,325191
1580347999.823,325191
1580348009.822,325191
1580348019.822,325191
1580348029.822,325191
1580348039.823,325192
1580348049.822,325192
1580348059.823,325192
1580348069.823,325192
1580348079.823,325192
1580348089.823,325192
1580348099.822,325192
1580348109.823,325194
1580348119.825,325195
1580348129.823,325196
1580348139.823,325197
1580348149.824,325198
1580348159.822,325198
1580348169.822,325198
1580348179.822,325199
1580348189.822,325200
1580348199.822,325200
1580348209.822,325202
1580348219.823,325202
1580348229.822,325203
1580348239.822,325204
1580348249.825,325205
1580348259.823,325206
1580348269.824,325206
1580348279.823,325206
1580348289.823,325207
1580348299.822,325207
1580348309.822,325208
1580348319.825,325209
1580348329.823,325210
1580348339.823,325210
1580348349.823,325211
1580348359.823,325212
1580348369.824,325212
1580348379.822,325213
1580348389.822,325214
1580348399.823,325214
1580348409.823,325215
1580348419.822,325215
1580348429.823,325215
1580348439.822,325216
1580348449.823,325216
1580348459.822,325217
1580348469.822,325218
1580348479.823,325218
1580348489.822,325218
1580348499.822,325220
1580348509.823,325221
1580348519.823,325221
1580348529.824,325221
1580348539.823,325223
1580348549.824,325224
1580348559.824,325224
1580348569.823,325225
1580348579.822,325226
1580348589.822,325226
1580348599.824,325228
1580348609.822,325228
1580348619.824,325228
1580348629.823,325228
1580348639.822,325228
1580348649.823,325231
1580348659.822,325231
1580348669.822,325231
1580348679.822,325231
1580348689.822,325231
1580348699.824,325231
1580348709.822,325232
1580348719.822,325232
1580348729.822,325232
1580348739.822,325232
1580348749.824,325233
1580348759.823,325233
1580348769.823,325234
1580348779.822,325235
1580348789.822,325238
1580348799.823,325239
1580348809.822,325240
1580348819.822,325240
1580348829.822,325240
1580348839.823,325240
1580348849.822,325241
1580348859.823,325242
1580348869.823,325242
1580348879.822,325242
1580348889.823,325243
1580348899.822,325244
1580348909.823,325245
1580348919.822,325245
1580348929.822,325246
1580348939.825,325246
1580348949.822,325247
1580348959.823,325249
1580348969.822,325249
1580348979.823,325249
1580348989.823,325249
1580348999.822,325252
1580349009.822,325254
1580349019.822,325254
1580349029.822,325255
1580349039.824,325256
1580349049.822,325258
1580349059.822,325258
1580349069.822,325258
1580349079.822,325258
1580349089.822,325259
1580349099.822,325259
1580349109.822,325261
1580349119.822,325261
1580349129.824,325262
1580349139.822,325263
1580349149.823,325263
1580349159.824,325263
1580349169.823,325264
1580349179.822,325265
1580349189.822,325266
1580349199.822,325266
1580349209.822,325267
1580349219.822,325268
1580349229.823,325268
1580349239.823,325268
1580349249.824,325268
1580349259.822,325268
1580349269.822,325269
1580349279.822,325269
1580349289.824,325270
1580349299.822,325270
1580349309.823,325270
1580349319.823,325270
1580349329.822,325271
1580349339.822,325271
1580349349.822,325272
1580349359.823,325272
1580349369.822,325273
1580349379.822,325273
1580349389.826,325273
1580349399.822,325273
1580349409.822,325274
1580349419.823,325274
1580349429.822,325274
1580349439.824,325274
1580349449.822,325274
1580349459.823,325276
1580349469.822,325276
1580349479.824,325276
1580349489.824,325277
1580349499.822,325278
1580349509.822,325278
1580349519.822,325278
1580349529.822,325278
1580349539.822,325278
1580349549.822,325280
1580349559.822,325282
1580349569.822,325284
1580349579.822,325285
1580349589.825,325285
1580349599.823,325286
1580349609.823,325286
1580349619.822,325288
1580349629.822,325289
1580349639.822,325291
1580349649.822,325292
1580349659.823,325292
1580349669.823,325292
1580349679.822,325293
1580349689.822,325294
1580349699.822,325294
1580349709.823,325294
1580349719.824,325294
1580349729.823,325296
1580349739.823,325297
1580349749.822,325298
1580349759.824,325298
1580349769.822,325301
1580349779.822,325301
1580349789.823,325301
1580349799.822,325301
1580349809.822,325302
1580349819.822,325302
1580349829.823,325302
1580349839.825,325302
1580349849.822,325302
1580349859.822,325303
1580349869.823,325304
1580349879.822,325305
1580349889.824,325305
1580349899.822,325305
1580349909.823,325307
1580349919.822,325308
1580349929.825,325310
1580349939.823,325311
1580349949.822,325312
1580349959.822,325313
1580349969.822,325313
1580349979.823,325314
1580349989.822,325315
1580349999.823,325315
1580350009.822,325316
1580350019.822,325316
1580350029.823,325318
1580350039.823,325318
1580350049.822,325320
1580350059.822,325321
1580350069.822,325321
1580350079.822,325322
1580350089.823,325322
1580350099.825,325322
1580350109.825,325322
1580350119.822,325323
1580350129.822,325326
1580350139.822,325326
1580350149.822,325327
1580350159.822,325327
1580350169.823,325328
1580350179.822,325328
1580350189.823,325328
1580350199.822,325328
1580350209.822,325330
1580350219.822,325330
1580350229.826,325330
1580350239.824,325330
1580350249.823,325331
1580350259.824,325332
1580350269.822,325332
1580350279.823,325332
1580350289.822,325332
1580350299.823,325332
1580350309.822,325332
1580350319.822,325333
1580350329.824,325334
1580350339.822,325334
1580350349.823,325336
1580350359.823,325337
1580350369.825,325338
1580350379.823,325339
1580350389.822,325340
1580350399.822,325340
1580350409.822,325340
1580350419.822,325341
1580350429.823,325343
1580350439.822,325344
1580350449.822,325346
1580350459.822,325346
1580350469.823,325347
1580350479.822,325348
1580350489.825,325348
1580350499.822,325349
1580350509.823,325350
1580350519.822,325350
1580350529.825,325351
1580350539.822,325352
1580350549.823,325353
1580350559.823,325354
1580350569.823,325354
1580350579.822,325354
1580350589.823,325355
1580350599.822,325355
1580350609.822,325356
1580350619.823,325356
1580350629.823,325357
1580350639.822,325359
1580350649.822,325360
1580350659.822,325360
1580350669.822,325360
1580350679.822,325360
1580350689.822,325361
1580350699.822,325362
1580350709.824,325363
1580350719.822,325363
1580350729.823,325363
1580350739.822,325364
1580350749.825,325365
1580350759.822,325365
1580350769.823,325366
1580350779.823,325366
1580350789.823,325366
1580350799.823,325369
1580350809.822,325371
1580350819.822,325372
1580350829.822,325372
1580350839.822,325373
1580350849.823,325373
1580350859.822,325373
1580350869.824,325374
1580350879.822,325374
1580350889.823,325374
1580350899.822,325374
1580350909.822,325376
1580350919.823,325377
1580350929.822,325377
1580350939.823,325377
1580350949.823,325378
1580350959.823,325378
1580350969.823,325378
1580350979.826,325379
1580350989.822,325380
1580350999.823,325381
1580351009.823,325382
1580351019.823,325383
1580351029.823,325384
1580351039.822,325384
1580351049.822,325384
1580351059.822,325384
1580351069.822,325385
1580351079.827,325385
1580351089.824,325385
1580351099.825,325387
1580351109.822,325387
1580351119.822,325389
1580351129.823,325389
1580351139.823,325390
1580351149.826,325390
1580351159.822,325391
1580351169.823,325392
1580351179.823,325392
1580351189.822,325393
1580351199.822,325394
1580351209.823,325395
1580351219.825,325396
1580351229.825,325396
1580351239.822,325397
1580351249.822,325398
1580351259.822,325399
1580351269.822,325399
1580351279.823,325400
1580351289.822,325400
1580351299.823,325400
1580351309.822,325401
1580351319.824,325402
1580351329.823,325403
1580351339.824,325404
1580351349.822,325405
