epoch,value
1580472830.833,0
1580472840.828,0
1580472850.829,0
1580472860.828,0
1580472870.828,0
1580472880.828,0
1580472890.828,0
1580472900.828,0
1580472910.828,0
1580472920.828,1
1580472930.828,1
1580472940.828,1
1580472950.828,1
1580472960.828,1
1580472970.828,1
1580472980.828,2
1580472990.828,2
1580473000.828,2
1580473010.828,2
1580473020.828,2
1580473030.828,2
1580473040.828,2
1580473050.828,2
1580473060.828,2
1580473070.828,2
1580473080.828,2
1580473090.828,3
1580473100.828,3
1580473110.828,3
1580473120.828,3
1580473130.828,4
1580473140.828,4
1580473150.828,4
1580473160.828,4
1580473170.828,4
1580473180.828,4
1580473190.828,4
1580473200.828,4
1580473210.828,4
1580473220.828,4
1580473230.828,4
1580473240.828,4
1580473250.828,4
1580473260.828,4
1580473270.828,4
1580473280.828,4
1580473290.828,4
1580473300.828,4
1580473310.828,4
1580473320.828,4
1580473330.828,4
1580473340.828,5
1580473350.828,5
1580473360.828,5
1580473370.828,5
1580473380.828,5
1580473390.828,5
1580473400.828,5
1580473410.828,5
1580473420.828,5
1580473430.828,5
1580473440.828,5
1580473450.828,5
1580473460.828,5
1580473470.828,5
1580473480.828,5
1580473490.828,5
1580473500.828,5
1580473510.828,5
1580473520.828,5
1580473530.828,5
1580473540.828,5
1580473550.828,5
1580473560.828,5
1580473570.828,5
1580473580.828,5
1580473590.828,5
1580473600.828,5
1580473610.828,5
1580473620.828,5
1580473630.828,5
1580473640.828,5
1580473650.828,5
1580473660.828,5
1580473670.828,5
1580473680.828,5
1580473690.828,5
1580473700.828,5
1580473710.828,5
1580473720.828,5
1580473730.828,5
1580473740.828,5
1580473750.828,5
1580473760.830,5
1580473770.828,5
1580473780.828,5
1580473790.828,5
1580473800.828,5
1580473810.828,5
1580473820.828,5
1580473830.828,6
1580473840.828,6
1580473850.828,6
1580473860.828,6
1580473870.828,6
1580473880.828,6
1580473890.828,6
1580473900.828,6
1580473910.828,6
1580473920.828,6
1580473930.828,6
1580473940.828,6
1580473950.828,6
1580473960.828,6
1580473970.828,6
1580473980.828,6
1580473990.828,6
1580474000.833,6
1580474010.828,6
1580474020.828,6
1580474030.828,6
1580474040.828,6
1580474050.828,6
1580474060.828,6
1580474070.828,6
1580474080.828,6
1580474090.828,6
1580474100.828,6
1580474110.828,6
1580474120.828,7
1580474130.828,7
1580474140.828,7
1580474150.828,7
1580474160.828,7
1580474170.828,7
1580474180.828,7
1580474190.828,7
1580474200.828,7
1580474210.828,7
1580474220.828,7
1580474230.828,7
1580474240.828,7
1580474250.828,7
1580474260.828,7
1580474270.828,7
1580474280.828,7
1580474290.828,7
1580474300.828,7
1580474310.828,7
1580474320.828,7
1580474330.828,7
1580474340.828,7
1580474350.833,7
1580474360.828,8
