epoch,value
1579933527.102,0
1579933537.106,0
1579933547.102,0
1579933557.102,4
1579933567.102,20
1579933577.102,32
1579933587.105,45
1579933597.102,61
1579933607.102,65
1579933617.102,73
1579933627.102,87
1579933637.102,100
1579933647.102,115
1579933657.102,132
1579933667.102,139
1579933677.102,148
1579933687.102,162
1579933697.102,166
1579933707.102,170
1579933717.102,178
1579933727.102,195
1579933737.102,201
1579933747.102,205
1579933757.102,213
1579933767.106,218
1579933777.102,226
1579933787.102,233
1579933797.102,236
1579933807.102,240
1579933817.102,247
1579933827.102,268
1579933837.102,270
1579933847.102,276
1579933857.102,286
1579933867.106,286
1579933877.102,286
1579933887.102,286
1579933897.102,287
1579933917.102,287
1579933927.102,287
1579933937.102,287
1579933947.102,288
1579933957.102,288
1579933967.102,288
1579933977.103,288
1579933987.102,288
1579933997.102,288
1579934007.102,289
1579934017.102,289
1579934027.102,289
1579934037.102,290
1579934047.102,290
1579934057.102,290
1579934067.104,290
1579934077.102,290
1579934087.106,290
1579934097.102,290
1579934107.102,291
1579934117.102,291
1579934127.102,291
1579934137.102,292
1579934147.102,292
1579934157.102,292
1579934167.102,292
1579934177.102,293
1579934187.102,293
1579934197.102,293
1579934207.102,293
1579934217.102,293
1579934227.102,293
1579934237.102,294
1579934247.102,294
1579934257.102,294
1579934267.102,295
1579934277.102,295
1579934287.102,296
1579934297.102,296
1579934307.102,297
1579934317.103,297
1579934327.102,297
1579934337.102,298
1579934347.106,298
1579934357.102,299
1579934367.102,299
1579934377.102,299
1579934387.102,299
1579934397.102,299
1579934407.102,299
1579934417.102,299
1579934427.102,299
1579934437.102,299
1579934447.102,299
1579934457.102,299
1579934467.102,299
1579934477.102,299
1579934487.102,299
1579934497.102,300
1579934507.105,300
1579934517.102,300
1579934527.102,300
1579934537.102,300
1579934547.102,300
1579934557.102,300
1579934567.102,300
1579934577.102,300
1579934587.102,300
1579934597.102,300
1579934607.102,300
1579934617.102,300
1579934627.102,300
1579934637.102,300
1579934647.102,300
1579934657.106,301
1579934667.102,301
1579934677.102,301
1579934687.102,301
1579934697.102,301
1579934707.102,301
1579934717.102,301
1579934727.102,301
1579934737.102,301
1579934747.102,301
1579934757.102,301
1579934767.102,301
1579934777.102,301
1579934787.102,301
1579934797.102,301
1579934807.102,301
1579934817.102,301
1579934827.102,301
1579934837.102,301
1579934847.102,301
1579934857.102,301
1579934877.102,301
1579934887.102,301
1579934897.102,302
1579934907.102,302
1579934917.102,302
1579934927.102,302
1579934937.106,302
1579934947.102,302
1579934957.102,302
1579934967.102,302
1579934977.102,302
1579934987.102,302
1579934997.102,302
1579935007.102,302
1579935017.105,302
1579935027.102,302
1579935037.102,302
1579935047.102,303
1579935057.102,303
1579935067.102,303
1579935077.102,303
1579935087.102,303
1579935097.102,303
1579935107.102,303
1579935117.102,303
1579935127.102,303
1579935137.102,303
1579935147.102,303
1579935157.102,303
1579935167.102,303
1579935187.102,303
1579935197.102,303
1579935207.102,303
1579935217.102,303
1579935227.102,303
1579935237.102,303
1579935247.102,303
1579935257.106,303
1579935267.102,303
1579935277.104,303
1579935287.102,304
1579935297.102,304
1579935307.102,304
1579935317.102,304
1579935327.102,304
1579935337.102,304
1579935347.102,304
1579935357.102,304
1579935367.102,304
1579935377.102,304
1579935387.102,304
1579935397.102,304
1579935407.102,304
1579935417.102,304
1579935427.104,304
1579935437.102,304
1579935447.102,304
1579935457.102,304
1579935467.102,304
1579935477.102,304
1579935487.102,305
1579935497.102,305
1579935507.102,305
1579935517.102,305
1579935527.109,305
1579935537.102,305
1579935547.102,305
1579935557.102,305
1579935567.102,305
1579935577.102,305
1579935587.102,305
1579935597.102,305
1579935607.102,305
1579935617.102,306
1579935627.102,306
1579935637.102,306
1579935647.102,306
1579935657.102,306
1579935667.102,306
1579935677.102,306
1579935687.102,306
1579935697.102,306
1579935707.102,306
1579935717.102,306
1579935727.102,307
1579935737.102,307
1579935747.102,307
1579935757.102,307
1579935767.102,307
1579935777.102,307
1579935787.103,307
1579935797.102,307
1579935807.102,307
1579935827.102,307
1579935837.102,307
1579935847.102,307
1579935857.102,307
1579935867.102,307
1579935877.102,308
1579935887.102,308
1579935897.102,308
1579935907.102,308
1579935917.102,308
1579935927.102,308
1579935937.102,308
1579935947.102,308
1579935957.102,308
1579935967.102,308
1579935977.102,308
1579935987.102,308
1579935997.102,308
1579936007.102,308
1579936017.102,308
1579936027.102,308
1579936037.102,308
1579936047.102,308
1579936057.102,308
1579936067.102,308
1579936077.102,308
1579936087.102,308
1579936097.102,308
1579936107.106,308
1579936117.106,309
1579936127.102,309
1579936137.102,309
1579936147.102,309
1579936157.102,309
1579936167.102,309
1579936177.102,309
1579936187.102,309
1579936197.102,309
1579936207.102,309
1579936217.102,309
1579936227.102,309
1579936237.106,309
1579936247.102,309
1579936257.102,309
