epoch,value
1579901708.200,6122
1579901718.162,6122
1579901728.164,6122
1579901738.162,6122
1579901748.162,6122
1579901758.161,6122
1579901768.162,6122
1579901778.161,6122
1579901788.161,6122
1579901798.161,6122
1579901808.162,6122
1579901818.161,6122
1579901828.162,6122
1579901838.161,6122
1579901848.162,6122
1579901858.162,6122
1579901868.161,6122
1579901878.161,6122
1579901888.162,6122
1579901898.162,6122
1579901908.161,6122
1579901918.161,6122
1579901928.163,6122
1579901938.161,6122
1579901948.164,6122
1579901958.161,6122
1579901968.162,6122
1579901978.161,6122
1579901988.162,6122
1579901998.162,6122
1579902008.161,6122
1579902018.162,6122
1579902028.162,6122
1579902038.161,6122
1579902048.161,6122
1579902058.161,6122
1579902068.161,6122
1579902078.161,6122
1579902088.162,6122
1579902098.161,6122
1579902108.162,6122
1579902118.164,6122
1579902128.161,6122
1579902138.161,6122
1579902148.162,6122
1579902158.162,6122
1579902168.162,6122
1579902178.165,6122
1579902188.162,6122
1579902198.161,6122
1579902208.161,6122
1579902218.161,6122
1579902228.161,6122
1579902238.163,6122
1579902248.162,6122
1579902258.161,6122
1579902268.163,6122
1579902278.161,6122
1579902288.162,6122
1579902298.162,6122
1579902308.163,6122
1579902318.162,6122
1579902328.162,6122
1579902338.162,6122
1579902348.161,6122
1579902358.161,6122
1579902368.162,6122
1579902378.162,6122
1579902388.162,6122
1579902398.162,6122
1579902408.163,6122
1579902418.161,6122
1579902428.161,6122
1579902438.161,6122
1579902448.162,6122
1579902458.161,6122
1579902468.162,6122
1579902478.162,6122
1579902488.162,6122
1579902498.161,6122
1579902508.162,6122
1579902518.161,6122
1579902528.161,6122
1579902538.164,6122
1579902548.161,6122
1579902558.161,6122
1579902568.162,6122
1579902578.162,6122
1579902588.161,6122
1579902598.162,6122
1579902608.162,6122
1579902618.161,6122
1579902628.162,6122
1579902638.161,6122
1579902648.161,6122
1579902658.162,6122
1579902668.162,6122
1579902678.162,6122
1579902688.162,6122
1579902698.162,6122
1579902708.161,6122
1579902718.162,6122
1579902728.162,6122
1579902738.162,6122
1579902748.161,6122
1579902758.163,6122
1579902768.161,6122
1579902778.161,6122
1579902788.163,6122
1579902798.161,6122
1579902808.165,6122
1579902818.162,6122
1579902828.163,6122
1579902838.161,6122
1579902848.162,6122
1579902858.162,6122
1579902868.165,6122
1579902878.162,6122
1579902888.161,6122
1579902898.161,6122
1579902908.162,6122
1579902918.161,6122
1579902928.162,6122
1579902938.162,6122
1579902948.161,6122
1579902958.161,6122
1579902968.161,6122
1579902978.161,6122
1579902988.161,6122
1579902998.162,6122
1579903008.161,6122
1579903018.161,6122
1579903028.162,6122
1579903038.162,6122
1579903048.161,6122
1579903058.161,6122
1579903068.161,6122
1579903078.161,6122
1579903088.161,6122
1579903098.161,6122
1579903108.161,6122
1579903118.161,6122
1579903128.162,6122
1579903138.161,6122
1579903148.161,6122
1579903158.162,6122
1579903168.161,6122
1579903178.161,6122
1579903188.161,6122
1579903198.161,6122
1579903208.161,6123
1579903218.162,6123
1579903228.161,6123
1579903238.161,6123
1579903248.162,6123
1579903258.161,6123
1579903268.163,6123
1579903278.161,6123
1579903288.161,6123
1579903298.161,6123
1579903308.161,6123
1579903318.162,6123
1579903328.161,6123
1579903338.161,6123
1579903348.162,6123
1579903358.164,6123
1579903368.162,6123
1579903378.164,6123
1579903388.163,6123
1579903398.162,6123
1579903408.161,6123
1579903418.161,6123
1579903428.162,6123
1579903438.161,6123
1579903448.162,6123
1579903458.161,6123
1579903468.161,6123
1579903478.161,6123
1579903488.161,6123
1579903498.162,6123
1579903508.162,6123
1579903518.162,6123
1579903528.162,6123
1579903538.161,6123
1579903548.163,6123
1579903558.162,6123
1579903568.161,6123
1579903578.161,6123
1579903588.161,6123
1579903598.162,6123
1579903608.161,6123
1579903618.161,6123
1579903628.163,6123
1579903638.162,6123
1579903648.162,6123
1579903658.161,6123
1579903668.162,6123
1579903678.162,6123
1579903688.161,6123
1579903698.162,6123
1579903708.162,6123
1579903718.161,6123
1579903728.161,6123
1579903738.165,6123
1579903748.161,6123
1579903758.162,6123
1579903768.161,6123
1579903778.162,6123
1579903788.162,6123
1579903798.162,6123
1579903808.163,6123
1579903818.161,6123
1579903828.161,6123
1579903838.162,6123
1579903848.161,6123
1579903858.163,6123
1579903868.162,6123
1579903878.161,6123
1579903888.161,6123
1579903898.162,6123
1579903908.161,6123
1579903918.162,6123
1579903928.162,6123
1579903938.162,6123
1579903948.161,6123
1579903958.161,6123
1579903968.162,6123
1579903978.162,6123
1579903988.161,6123
1579903998.162,6123
1579904008.162,6123
1579904018.162,6123
1579904028.162,6123
1579904038.162,6123
1579904048.162,6123
1579904058.161,6123
1579904068.162,6123
1579904078.162,6123
1579904088.163,6123
1579904098.161,6123
1579904108.161,6123
1579904118.162,6123
1579904128.161,6123
1579904138.161,6123
1579904148.161,6123
1579904158.162,6123
1579904168.164,6123
1579904178.162,6123
1579904188.161,6123
1579904198.162,6123
1579904208.161,6123
1579904218.162,6123
1579904228.162,6123
1579904238.162,6123
1579904248.162,6123
1579904258.161,6123
1579904268.161,6123
1579904278.162,6123
1579904288.162,6123
1579904298.164,6123
1579904308.161,6123
1579904318.161,6123
1579904328.162,6123
1579904338.161,6123
1579904348.161,6123
1579904358.161,6123
1579904368.162,6123
1579904378.161,6123
1579904388.161,6123
1579904398.161,6123
1579904408.162,6123
1579904418.163,6123
1579904428.163,6123
1579904438.161,6123
1579904448.161,6123
1579904458.161,6123
1579904468.162,6123
