epoch,value
1579891974.704,247809
1579891984.685,247810
1579891994.685,247810
1579892004.686,247810
1579892014.689,247812
1579892024.685,247813
1579892034.686,247814
1579892044.685,247814
1579892054.685,247815
1579892064.685,247816
1579892074.686,247816
1579892084.685,247816
1579892094.685,247816
1579892104.687,247816
1579892114.685,247816
1579892124.685,247817
1579892134.685,247818
1579892144.688,247818
1579892154.685,247818
1579892164.685,247818
1579892174.688,247819
1579892184.686,247819
1579892194.686,247819
1579892204.689,247820
1579892214.685,247820
1579892224.686,247821
1579892234.685,247821
1579892244.685,247821
1579892254.686,247821
1579892264.687,247821
1579892274.685,247821
1579892284.685,247821
1579892294.685,247821
1579892304.685,247821
1579892314.685,247821
1579892324.685,247822
1579892334.686,247822
1579892344.685,247822
1579892354.687,247822
1579892364.685,247822
1579892374.685,247822
1579892384.686,247822
1579892394.685,247822
1579892404.685,247823
1579892414.685,247824
1579892424.685,247824
1579892434.687,247824
1579892444.685,247824
1579892454.685,247824
1579892464.686,247824
1579892474.685,247824
1579892484.686,247824
1579892494.685,247824
1579892504.685,247825
1579892514.685,247826
1579892524.685,247826
1579892534.686,247826
1579892544.685,247826
1579892554.685,247826
1579892564.685,247826
1579892574.685,247827
1579892584.685,247828
1579892594.685,247828
1579892604.685,247828
1579892614.685,247828
1579892624.685,247828
1579892634.685,247828
1579892644.686,247828
1579892654.685,247830
1579892664.685,247830
1579892674.685,247830
1579892684.685,247830
1579892694.686,247830
1579892704.685,247831
1579892714.685,247831
1579892724.685,247832
1579892734.687,247833
1579892744.685,247834
1579892754.685,247834
1579892764.685,247834
1579892774.685,247834
1579892784.685,247835
1579892794.685,247835
1579892804.685,247835
1579892814.686,247835
1579892824.685,247836
1579892834.685,247836
1579892844.686,247836
1579892854.685,247836
1579892864.685,247836
1579892874.685,247836
1579892884.685,247837
1579892894.689,247838
1579892904.685,247839
1579892914.685,247839
1579892924.686,247839
1579892934.685,247841
1579892944.686,247842
1579892954.685,247843
1579892964.686,247843
1579892974.685,247844
1579892984.686,247845
1579892994.685,247846
1579893004.685,247846
1579893014.685,247846
1579893024.685,247847
1579893034.685,247847
1579893044.686,247848
1579893054.685,247849
1579893064.685,247850
1579893074.686,247851
1579893084.685,247851
1579893094.685,247852
1579893104.689,247852
1579893114.687,247853
1579893124.685,247854
1579893134.685,247854
1579893144.685,247855
1579893154.685,247855
1579893164.685,247855
1579893174.685,247856
1579893184.685,247857
1579893194.685,247858
1579893204.686,247858
1579893214.685,247858
1579893224.685,247858
1579893234.687,247858
1579893244.685,247858
1579893254.685,247859
1579893264.685,247859
1579893274.685,247859
1579893284.685,247859
1579893294.685,247860
1579893304.685,247861
1579893314.685,247861
1579893324.685,247862
1579893334.687,247862
1579893344.686,247863
1579893354.685,247864
1579893364.685,247864
1579893374.685,247864
1579893384.685,247864
1579893394.685,247865
1579893404.685,247865
1579893414.688,247865
1579893424.685,247865
1579893434.685,247866
1579893444.685,247866
1579893454.685,247867
1579893464.685,247867
1579893474.685,247867
1579893484.685,247868
1579893494.685,247868
1579893504.685,247868
1579893514.685,247868
1579893524.685,247869
1579893534.685,247869
1579893544.685,247870
1579893554.685,247870
1579893564.685,247870
1579893574.689,247872
1579893584.688,247872
1579893594.685,247872
1579893604.686,247872
1579893614.685,247872
1579893624.685,247873
1579893634.685,247873
1579893644.685,247873
1579893654.685,247874
1579893664.686,247874
1579893674.685,247874
1579893684.685,247874
1579893694.685,247874
1579893704.687,247876
1579893714.686,247877
1579893724.685,247877
1579893734.685,247877
1579893744.687,247877
1579893754.685,247877
1579893764.685,247877
1579893774.685,247877
1579893784.688,247877
1579893794.685,247878
1579893804.685,247878
1579893814.685,247879
1579893824.686,247879
1579893834.685,247879
1579893844.685,247879
1579893854.685,247879
1579893864.685,247879
1579893874.685,247880
1579893884.685,247880
1579893894.685,247880
1579893904.685,247880
1579893914.685,247882
1579893924.685,247882
1579893934.685,247882
1579893944.685,247882
1579893954.685,247882
1579893964.685,247882
1579893974.686,247882
1579893984.685,247882
1579893994.685,247884
1579894004.685,247885
1579894014.685,247886
1579894024.685,247886
1579894034.685,247887
1579894044.685,247887
1579894054.685,247888
1579894064.685,247888
1579894074.686,247888
1579894084.685,247888
1579894094.685,247889
1579894104.685,247889
1579894114.685,247889
1579894124.685,247889
1579894134.685,247892
1579894144.685,247892
1579894154.686,247893
1579894164.685,247893
1579894174.685,247893
1579894184.685,247894
1579894194.687,247894
1579894204.685,247896
1579894214.685,247896
1579894224.689,247896
1579894234.685,247898
1579894244.685,247898
1579894254.685,247898
1579894264.686,247898
1579894274.685,247898
1579894284.685,247898
1579894294.685,247898
1579894304.685,247898
1579894314.685,247899
1579894324.686,247900
1579894334.688,247900
1579894344.685,247901
1579894354.685,247901
1579894364.685,247901
1579894374.685,247901
1579894384.685,247901
1579894394.687,247901
1579894404.685,247902
1579894414.685,247903
1579894424.685,247903
1579894434.685,247903
1579894444.685,247904
1579894454.687,247904
1579894464.687,247904
1579894474.685,247904
1579894484.687,247904
1579894494.685,247905
1579894504.685,247905
1579894514.686,247905
1579894524.685,247905
1579894534.685,247905
1579894544.685,247905
1579894554.685,247906
1579894564.685,247907
1579894574.686,247907
1579894584.685,247907
1579894594.685,247908
1579894604.685,247908
1579894614.685,247908
1579894624.685,247908
1579894634.685,247910
1579894644.687,247910
1579894654.685,247910
1579894664.685,247910
1579894674.686,247911
1579894684.685,247911
1579894694.685,247911
1579894704.686,247912
1579894714.685,247914
1579894724.685,247914
1579894734.685,247914
