epoch,value
1580478185.780,0
1580478195.780,0
1580478205.781,0
1580478215.780,0
1580478225.780,0
1580478235.781,0
1580478245.780,2
1580478255.780,2
1580478265.780,3
1580478275.780,3
1580478285.780,3
1580478295.781,4
1580478305.781,4
1580478315.780,4
1580478325.780,4
1580478335.780,5
1580478345.781,5
1580478355.780,19
1580478365.781,19
1580478375.780,19
1580478385.780,19
1580478395.781,20
1580478405.780,20
1580478415.781,20
1580478425.780,20
1580478435.781,21
1580478445.780,21
1580478455.780,21
1580478465.780,22
1580478475.781,22
1580478485.781,22
1580478495.780,23
1580478505.780,23
1580478515.780,23
1580478525.780,23
1580478535.780,23
1580478545.780,23
1580478555.780,23
1580478565.781,23
1580478575.781,23
1580478585.780,23
1580478595.781,23
1580478605.780,23
1580478615.781,23
1580478625.780,23
1580478635.780,23
1580478645.780,23
1580478655.780,23
1580478665.780,23
1580478675.780,23
1580478685.780,23
1580478695.780,24
1580478705.780,24
1580478715.780,24
1580478725.780,24
1580478735.781,24
1580478745.780,24
1580478755.780,24
1580478765.780,24
1580478775.780,24
1580478785.781,24
1580478795.780,24
1580478805.780,24
1580478815.780,24
1580478825.780,24
1580478835.781,24
1580478845.780,24
1580478855.780,24
1580478865.780,24
1580478875.781,24
1580478885.781,24
1580478895.780,24
1580478905.780,24
1580478915.780,24
1580478925.780,24
1580478935.781,24
1580478945.781,24
1580478955.780,24
1580478965.780,24
1580478975.781,24
1580478985.780,24
1580478995.780,24
1580479005.780,24
1580479015.780,24
1580479025.781,24
1580479035.780,24
1580479045.780,24
1580479055.781,24
1580479065.780,24
1580479075.780,24
1580479085.780,24
1580479095.780,24
1580479105.780,24
1580479115.780,24
1580479125.780,24
1580479135.781,24
1580479145.781,24
1580479155.780,24
1580479165.780,24
1580479175.781,24
1580479185.781,24
1580479195.780,24
1580479205.780,24
1580479215.780,24
1580479225.781,24
1580479235.780,24
1580479245.780,24
1580479255.780,24
1580479265.781,24
1580479275.780,24
1580479285.780,24
1580479295.780,24
1580479305.780,24
1580479315.780,24
1580479325.780,24
1580479335.780,24
1580479345.780,24
1580479355.781,24
1580479365.780,24
1580479375.780,24
1580479385.780,24
1580479395.780,24
1580479405.780,24
1580479415.780,24
1580479425.780,24
1580479435.780,24
1580479445.780,24
1580479455.780,24
1580479465.780,24
1580479475.780,24
1580479485.780,24
1580479495.780,24
1580479505.780,24
1580479515.780,24
1580479525.780,24
1580479535.780,24
1580479545.780,24
1580479555.780,24
1580479565.780,24
1580479575.780,24
1580479585.780,24
1580479595.780,24
1580479605.780,24
1580479615.783,24
1580479625.781,25
1580479635.780,25
1580479645.780,25
1580479655.780,25
1580479665.780,25
1580479675.781,25
1580479685.780,25
1580479695.780,25
1580479705.782,25
1580479715.780,25
