epoch,value
1580486943.991,14510
1580486953.971,14510
1580486963.971,14510
1580486973.973,14510
1580486983.971,14510
1580486993.971,14510
1580487003.972,14510
1580487013.971,14510
1580487023.971,14510
1580487033.971,14510
1580487043.971,14510
1580487053.971,14510
1580487063.972,14510
1580487073.971,14510
1580487083.971,14510
1580487093.971,14510
1580487103.975,14510
1580487113.971,14510
1580487123.971,14510
1580487133.971,14510
1580487143.971,14510
1580487153.971,14510
1580487163.971,14510
1580487173.971,14510
1580487183.971,14510
1580487193.971,14510
1580487203.971,14510
1580487213.971,14511
1580487223.971,14512
1580487233.971,14512
1580487243.971,14512
1580487253.971,14512
1580487263.973,14513
1580487273.971,14514
1580487283.971,14514
1580487293.972,14514
1580487303.971,14514
1580487313.972,14514
1580487323.973,14514
1580487333.971,14514
1580487343.971,14514
1580487353.971,14514
1580487363.971,14514
1580487373.971,14514
1580487383.971,14514
1580487393.972,14514
1580487403.971,14514
1580487413.971,14514
1580487423.971,14514
1580487433.971,14514
1580487443.971,14514
1580487453.971,14514
1580487463.971,14514
1580487473.974,14514
1580487483.971,14514
1580487493.971,14514
1580487503.971,14514
1580487513.971,14514
1580487523.971,14514
1580487533.971,14514
1580487543.971,14514
1580487553.972,14514
1580487563.972,14514
1580487573.971,14514
1580487583.971,14514
1580487593.971,14514
1580487603.971,14514
1580487613.972,14514
1580487623.971,14514
1580487633.972,14514
1580487643.971,14514
1580487653.971,14514
1580487663.971,14514
1580487673.971,14514
1580487683.971,14514
1580487693.971,14514
1580487703.971,14514
1580487713.971,14514
1580487723.971,14514
1580487733.971,14514
1580487743.971,14514
1580487753.971,14515
1580487763.971,14516
1580487773.971,14516
1580487783.971,14516
1580487793.971,14516
1580487803.971,14516
1580487813.971,14516
1580487823.971,14516
1580487833.971,14516
1580487843.971,14516
1580487853.971,14516
1580487863.971,14516
1580487873.971,14516
1580487883.971,14516
1580487893.971,14516
1580487903.971,14517
1580487913.971,14517
1580487923.971,14517
1580487933.971,14517
1580487943.971,14517
1580487953.972,14517
1580487963.971,14517
1580487973.972,14517
1580487983.971,14517
1580487993.971,14517
1580488003.971,14517
1580488013.971,14517
1580488023.971,14517
1580488033.971,14517
1580488043.971,14517
1580488053.971,14517
1580488063.971,14517
1580488073.971,14517
1580488083.971,14517
1580488093.971,14517
1580488103.972,14517
1580488113.971,14517
1580488123.971,14517
1580488133.973,14517
1580488143.971,14517
1580488153.971,14517
1580488163.972,14517
1580488173.971,14517
1580488183.972,14517
1580488193.971,14517
1580488203.971,14517
1580488213.971,14517
1580488223.971,14517
1580488233.971,14517
1580488243.971,14517
1580488253.972,14517
1580488263.971,14517
1580488273.971,14517
1580488283.972,14517
1580488293.971,14517
1580488303.971,14517
1580488313.971,14517
1580488323.971,14517
1580488333.971,14517
1580488343.971,14517
1580488353.971,14517
1580488363.971,14517
1580488373.971,14517
1580488383.971,14517
1580488393.971,14517
1580488403.971,14517
1580488413.971,14517
1580488423.971,14517
1580488433.971,14517
1580488443.971,14517
1580488453.972,14517
1580488463.971,14517
1580488473.971,14517
1580488483.971,14517
1580488493.971,14517
1580488503.972,14517
