epoch,value
1580212397.215,39831
1580212407.197,39831
1580212417.197,39831
1580212427.197,39831
1580212437.198,39831
1580212447.197,39831
1580212457.197,39831
1580212467.197,39831
1580212477.197,39831
1580212487.196,39831
1580212497.196,39831
1580212507.197,39831
1580212517.196,39831
1580212527.197,39833
1580212537.197,39833
1580212547.198,39833
1580212557.196,39833
1580212567.197,39833
1580212577.200,39833
1580212587.197,39833
1580212597.197,39833
1580212607.197,39833
1580212617.198,39833
1580212627.198,39833
1580212637.197,39833
1580212647.196,39833
1580212657.197,39833
1580212667.196,39833
1580212677.196,39833
1580212687.197,39833
1580212697.196,39833
1580212707.196,39833
1580212717.197,39833
1580212727.197,39833
1580212737.196,39833
1580212747.197,39833
1580212757.196,39833
1580212767.197,39833
1580212777.196,39833
1580212787.199,39833
1580212797.196,39833
1580212807.197,39833
1580212817.197,39833
1580212827.196,39833
1580212837.199,39833
1580212847.197,39833
1580212857.197,39833
1580212867.197,39833
1580212877.197,39833
1580212887.197,39833
1580212897.197,39833
1580212907.197,39833
1580212917.198,39833
1580212927.197,39833
1580212937.196,39833
1580212947.197,39833
1580212957.198,39833
1580212967.198,39833
1580212977.197,39834
1580212987.196,39834
1580212997.197,39834
1580213007.196,39834
1580213017.197,39834
1580213027.197,39834
1580213037.197,39834
1580213047.197,39834
1580213057.198,39834
1580213067.198,39834
1580213077.196,39834
1580213087.196,39834
1580213097.197,39834
1580213107.197,39834
1580213117.197,39834
1580213127.196,39834
1580213137.196,39834
1580213147.196,39834
1580213157.198,39834
1580213167.197,39834
1580213177.197,39834
1580213187.197,39834
1580213197.197,39834
1580213207.197,39834
1580213217.197,39834
1580213227.197,39834
1580213237.196,39834
1580213247.199,39835
1580213257.197,39835
1580213267.197,39835
1580213277.196,39836
1580213287.199,39836
1580213297.199,39836
1580213307.197,39836
1580213317.196,39836
1580213327.197,39836
1580213337.197,39836
1580213347.197,39836
1580213357.196,39836
1580213367.196,39836
1580213377.196,39836
1580213387.196,39836
1580213397.197,39836
1580213407.196,39836
1580213417.199,39836
1580213427.197,39836
1580213437.197,39836
1580213447.197,39836
1580213457.197,39836
1580213467.198,39836
1580213477.197,39836
1580213487.196,39836
1580213497.198,39836
1580213507.197,39836
1580213517.198,39836
1580213527.197,39836
1580213537.197,39836
1580213547.197,39836
1580213557.196,39836
1580213567.196,39836
1580213577.196,39836
1580213587.198,39837
1580213597.197,39837
1580213607.197,39837
1580213617.198,39837
1580213627.196,39837
1580213637.199,39837
1580213647.197,39838
1580213657.197,39839
1580213667.198,39839
1580213677.198,39839
1580213687.197,39839
1580213697.197,39839
1580213707.197,39839
1580213717.197,39839
1580213727.197,39839
1580213737.196,39839
1580213747.197,39839
1580213757.197,39839
1580213767.196,39839
1580213777.198,39840
1580213787.197,39840
1580213797.199,39840
1580213807.197,39840
1580213817.197,39840
1580213827.197,39840
1580213837.197,39840
1580213847.197,39840
1580213857.197,39840
1580213867.197,39840
1580213877.197,39840
1580213887.197,39842
1580213897.197,39842
1580213907.197,39842
1580213917.196,39842
1580213927.196,39842
1580213937.196,39842
1580213947.198,39842
1580213957.197,39842
1580213967.196,39842
1580213977.197,39844
1580213987.197,39844
1580213997.198,39844
1580214007.196,39844
1580214017.196,39844
1580214027.197,39844
1580214037.197,39845
1580214047.197,39845
1580214057.197,39845
1580214067.200,39845
1580214077.197,39845
1580214087.197,39845
1580214097.197,39845
1580214107.197,39846
1580214117.197,39846
1580214127.196,39846
1580214137.196,39846
1580214147.197,39846
1580214157.196,39846
1580214167.199,39846
1580214177.196,39846
1580214187.196,39846
1580214197.197,39846
1580214207.198,39846
1580214217.196,39846
1580214227.197,39847
1580214237.197,39847
1580214247.197,39847
1580214257.197,39847
1580214267.197,39847
1580214277.196,39847
1580214287.197,39847
1580214297.196,39847
1580214307.197,39847
1580214317.197,39847
1580214327.197,39847
1580214337.198,39847
1580214347.198,39847
1580214357.197,39848
1580214367.196,39848
1580214377.197,39848
1580214387.197,39850
1580214397.197,39850
1580214407.197,39850
1580214417.196,39850
1580214427.199,39851
1580214437.197,39851
1580214447.198,39851
1580214457.196,39851
1580214467.197,39851
1580214477.199,39851
1580214487.196,39851
1580214497.197,39851
1580214507.197,39851
1580214517.198,39851
1580214527.197,39851
1580214537.196,39851
1580214547.197,39851
1580214557.196,39851
1580214567.197,39851
1580214577.197,39851
1580214587.197,39851
1580214597.197,39851
1580214607.198,39851
1580214617.197,39851
1580214627.197,39851
1580214637.197,39851
1580214647.197,39851
1580214657.197,39852
1580214667.197,39852
1580214677.197,39852
1580214687.196,39852
1580214697.198,39852
1580214707.197,39852
1580214717.197,39852
1580214727.197,39852
1580214737.197,39853
1580214747.197,39853
1580214757.198,39853
1580214767.197,39853
1580214777.197,39853
1580214787.196,39853
1580214797.197,39853
1580214807.198,39854
1580214817.196,39854
1580214827.197,39854
1580214837.196,39854
1580214847.197,39854
1580214857.197,39854
1580214867.197,39854
1580214877.197,39854
1580214887.196,39854
1580214897.196,39854
1580214907.197,39854
1580214917.197,39854
1580214927.196,39854
1580214937.197,39854
1580214947.196,39854
1580214957.198,39854
1580214967.197,39854
1580214977.197,39854
1580214987.197,39854
1580214997.197,39854
1580215007.196,39854
1580215017.196,39854
1580215027.198,39854
1580215037.196,39854
1580215047.196,39854
1580215057.196,39854
1580215067.197,39854
1580215077.198,39855
1580215087.196,39855
1580215097.196,39856
1580215107.198,39856
1580215117.197,39856
1580215127.196,39856
1580215137.196,39856
1580215147.197,39857
1580215157.196,39858
1580215167.196,39858
