epoch,value
1580242492.215,0
1580242512.215,0
1580242522.215,0
1580242532.215,0
1580242542.215,0
1580242552.215,0
1580242562.215,0
1580242572.215,0
1580242582.217,0
1580242592.215,0
1580242602.215,0
1580242612.215,0
1580242622.215,0
1580242632.215,0
1580242652.215,0
1580242662.215,0
1580242672.215,0
1580242682.215,0
1580242692.218,0
1580242702.215,0
1580242712.215,0
1580242722.215,0
1580242732.215,0
1580242742.215,0
1580242752.215,0
1580242762.215,0
1580242772.215,0
1580242782.215,0
1580242792.215,0
1580242802.215,0
1580242812.215,0
1580242822.215,0
1580242832.215,0
1580242842.215,0
1580242852.215,0
1580242862.215,1
1580242872.215,1
1580242882.215,1
1580242892.215,1
1580242902.215,1
1580242912.215,1
1580242922.215,1
1580242932.215,1
1580242942.215,1
1580242952.215,1
1580242962.215,1
1580242972.215,1
1580242982.215,2
1580242992.215,2
1580243002.215,2
1580243012.215,2
1580243022.215,2
1580243032.215,2
1580243042.215,2
1580243052.220,2
1580243062.215,2
1580243072.215,2
1580243082.215,2
1580243092.215,2
1580243102.215,2
1580243112.215,2
1580243122.215,2
1580243132.215,3
1580243142.215,3
1580243152.215,3
1580243162.215,3
1580243172.215,3
1580243182.215,3
1580243192.215,3
1580243202.215,3
1580243212.215,3
1580243222.215,3
1580243232.215,3
1580243242.215,3
1580243252.215,3
1580243262.215,3
1580243272.215,3
1580243282.215,3
1580243292.215,3
1580243302.215,3
1580243312.215,3
1580243322.215,3
1580243332.215,3
1580243342.215,4
1580243352.215,4
1580243362.216,4
1580243372.215,4
1580243382.215,4
1580243392.215,4
1580243402.215,4
1580243412.215,4
1580243422.215,4
1580243432.215,4
1580243442.215,4
1580243452.215,4
1580243462.215,4
1580243472.215,4
1580243482.215,4
1580243492.215,4
1580243502.215,4
1580243512.215,4
1580243522.215,4
1580243532.215,4
1580243542.215,4
1580243552.215,4
1580243562.215,4
1580243572.215,5
1580243582.215,5
1580243592.215,5
1580243602.215,5
1580243612.215,5
1580243622.215,5
1580243632.219,5
1580243642.215,5
1580243652.215,5
1580243662.215,5
1580243672.215,5
1580243682.215,5
1580243692.215,5
1580243702.215,5
1580243712.215,5
1580243722.216,5
1580243732.215,5
1580243742.215,5
1580243752.215,5
1580243762.215,5
1580243772.215,5
1580243782.215,5
1580243792.215,5
1580243802.215,5
1580243812.215,6
1580243822.215,6
1580243832.215,6
1580243842.215,6
1580243852.217,6
1580243862.215,6
1580243872.215,6
1580243882.215,6
1580243892.215,6
1580243902.215,6
1580243912.215,6
1580243922.215,6
1580243932.215,6
1580243942.215,6
1580243952.215,6
1580243962.215,6
1580243972.215,6
1580243982.215,6
1580243992.215,6
1580244002.215,6
1580244012.215,6
1580244022.215,6
1580244032.215,7
1580244042.215,7
1580244052.215,7
1580244062.215,7
1580244072.215,7
1580244082.215,7
1580244092.215,7
1580244102.215,7
1580244112.219,7
1580244122.216,7
1580244132.216,7
1580244142.215,7
1580244152.215,7
1580244162.216,7
1580244172.215,7
1580244182.215,8
1580244192.215,8
1580244202.216,8
1580244212.215,8
1580244222.215,8
1580244232.215,8
1580244242.215,8
1580244252.215,8
1580244262.215,8
1580244272.215,8
1580244282.215,8
1580244292.215,8
1580244302.215,8
1580244312.215,8
1580244322.216,8
1580244332.215,8
1580244342.215,8
1580244352.215,8
1580244362.215,8
1580244372.215,8
1580244382.215,8
1580244392.215,8
1580244402.215,8
1580244412.215,8
1580244422.215,8
1580244432.215,8
1580244442.215,9
1580244452.216,9
1580244462.215,9
1580244472.215,9
1580244482.215,9
1580244492.215,9
1580244502.215,9
1580244512.215,9
1580244522.215,9
1580244532.215,9
1580244542.216,9
1580244552.215,9
1580244562.215,9
1580244572.215,9
1580244582.215,9
1580244592.215,9
1580244602.220,9
1580244612.215,9
1580244622.215,9
1580244632.215,9
1580244642.215,9
1580244652.215,9
1580244662.215,9
1580244672.215,9
1580244682.215,9
1580244692.215,9
1580244702.215,9
1580244712.219,9
1580244722.215,9
1580244732.215,9
1580244742.215,9
1580244752.215,9
1580244762.215,10
1580244772.215,10
1580244782.215,10
1580244792.215,10
1580244802.215,10
1580244812.215,10
1580244822.215,10
1580244832.215,10
1580244842.215,10
1580244852.215,10
1580244862.215,10
1580244872.215,10
1580244882.215,10
1580244892.215,10
1580244902.215,10
1580244912.215,10
1580244922.215,10
1580244932.215,10
1580244942.217,10
1580244952.215,10
1580244962.215,10
1580244972.215,10
1580244982.215,11
1580244992.215,11
1580245002.215,11
1580245012.215,11
1580245022.215,11
1580245032.215,11
1580245042.215,11
1580245052.215,11
1580245062.215,11
1580245072.215,11
1580245082.218,11
1580245092.215,11
1580245102.215,11
1580245112.215,11
1580245122.215,11
1580245132.215,11
1580245142.215,11
1580245152.215,11
1580245162.215,11
1580245172.215,11
1580245182.215,11
1580245192.215,11
1580245202.215,11
1580245212.215,12
1580245222.215,12
