epoch,value
1580661784.905,0
1580661794.905,0
1580661804.905,0
1580661814.905,0
1580661824.905,0
1580661834.905,0
1580661844.905,0
1580661854.905,0
1580661864.905,0
1580661874.905,0
1580661884.905,0
1580661894.905,0
1580661904.905,0
1580661914.905,0
1580661924.905,0
1580661934.905,0
1580661944.905,0
1580661954.905,0
1580661964.905,0
1580661974.905,0
1580661984.905,0
1580661994.905,0
1580662004.905,0
1580662014.905,0
1580662024.905,0
1580662034.905,0
1580662044.905,0
1580662054.905,0
1580662064.905,0
1580662074.905,0
1580662084.905,0
1580662094.905,0
1580662104.905,0
1580662114.905,0
1580662124.905,0
1580662134.905,0
1580662144.905,0
1580662154.905,0
1580662164.905,0
1580662174.905,0
1580662184.905,0
1580662194.905,0
1580662204.905,0
1580662214.905,0
1580662224.905,0
1580662234.905,0
1580662244.905,0
1580662254.905,0
1580662264.905,0
1580662274.905,0
1580662284.907,0
1580662294.905,0
1580662304.905,0
1580662314.905,0
1580662324.905,0
1580662334.905,0
1580662354.905,0
1580662364.905,0
1580662374.905,0
1580662384.905,0
1580662394.905,0
1580662404.905,0
1580662414.905,0
1580662424.905,0
1580662434.905,0
1580662444.905,0
1580662454.905,0
1580662464.905,0
1580662474.905,0
1580662484.905,0
1580662494.905,0
1580662504.905,0
1580662514.905,0
1580662524.905,0
1580662534.905,0
1580662544.905,0
1580662554.905,1
1580662564.905,1
1580662574.905,1
1580662584.905,1
1580662594.905,1
1580662604.905,1
1580662614.905,1
1580662624.905,1
1580662634.905,1
1580662644.905,1
1580662654.905,1
1580662664.905,1
1580662674.905,1
1580662684.905,1
1580662694.905,1
1580662704.905,1
1580662714.905,1
1580662724.905,1
1580662734.905,1
1580662744.905,1
1580662754.905,1
1580662764.905,1
1580662774.905,1
1580662784.905,1
1580662794.905,1
1580662804.905,1
1580662814.905,1
1580662824.905,1
1580662834.905,1
1580662844.905,1
1580662854.905,1
1580662864.905,1
1580662874.905,1
1580662884.905,1
1580662894.905,1
1580662904.905,1
1580662914.905,1
1580662924.905,1
1580662934.905,1
1580662944.905,1
1580662954.905,1
1580662964.905,1
1580662974.905,1
1580662984.905,1
1580662994.905,1
1580663004.905,1
1580663014.905,1
1580663024.905,1
1580663034.905,1
1580663044.905,1
1580663054.905,1
1580663064.905,1
1580663074.905,1
1580663084.905,1
1580663094.905,1
1580663104.905,2
1580663114.905,2
1580663124.905,2
1580663134.905,2
1580663144.905,2
1580663154.905,2
1580663164.905,2
1580663174.905,2
1580663184.905,2
1580663194.905,2
1580663204.905,2
1580663214.905,2
1580663224.905,2
1580663234.905,2
1580663244.905,2
1580663254.905,2
1580663264.905,2
1580663274.905,2
1580663284.905,2
1580663294.905,2
1580663304.905,2
1580663314.905,2
1580663324.905,2
1580663334.905,2
1580663344.905,2
1580663354.905,2
1580663364.905,2
1580663374.905,2
1580663384.905,2
1580663394.905,2
1580663404.905,2
1580663414.905,2
1580663424.905,2
1580663434.905,2
1580663444.905,2
1580663454.905,2
1580663464.905,3
1580663474.905,3
1580663484.905,3
1580663494.905,3
1580663504.905,3
1580663514.905,3
1580663524.905,3
1580663534.905,3
1580663544.905,3
1580663554.905,3
1580663564.905,3
1580663574.905,3
1580663584.905,3
1580663594.905,3
1580663604.905,3
1580663614.905,3
1580663624.905,3
1580663634.905,3
1580663644.905,3
1580663654.905,3
1580663664.905,3
1580663674.905,3
1580663684.905,3
1580663694.905,3
1580663704.905,3
1580663714.905,3
1580663724.905,3
1580663734.905,3
1580663744.905,3
1580663754.905,3
1580663764.905,3
1580663774.905,3
1580663784.905,3
1580663794.905,3
1580663804.905,3
1580663814.905,3
1580663824.905,3
1580663834.905,3
1580663844.905,3
1580663854.905,3
1580663864.905,3
1580663874.905,3
1580663884.905,3
1580663894.905,3
1580663904.905,3
1580663914.905,3
1580663924.905,3
1580663934.905,3
1580663944.905,3
1580663954.905,3
1580663964.905,3
1580663974.905,3
1580663984.905,3
1580663994.905,3
1580664004.905,3
1580664014.905,3
1580664024.905,3
1580664034.905,3
1580664044.905,3
1580664054.905,3
1580664064.905,3
1580664074.905,3
1580664084.905,3
1580664094.905,3
1580664104.905,3
1580664114.905,4
1580664124.905,4
1580664134.905,4
1580664144.905,4
1580664154.905,4
1580664164.905,4
1580664174.905,4
1580664184.905,4
1580664194.905,4
1580664204.905,4
1580664214.912,4
1580664224.905,4
1580664234.905,4
1580664244.905,4
1580664254.905,4
1580664264.905,4
1580664274.905,4
1580664284.905,4
1580664294.905,4
1580664304.905,4
1580664314.905,4
1580664324.905,4
1580664334.905,4
1580664344.905,4
1580664354.905,4
1580664364.905,4
1580664374.905,4
1580664384.905,4
1580664394.905,4
1580664404.905,4
1580664414.905,4
1580664424.905,4
1580664434.905,4
1580664444.905,4
1580664454.905,4
1580664464.905,4
1580664474.905,4
1580664484.905,4
1580664494.905,4
1580664504.905,4
1580664514.905,4
1580664524.905,4
1580664534.905,4
1580664544.905,4
1580664554.905,4
1580664564.905,4
1580664574.905,5
1580664584.905,5
1580664594.905,5
1580664604.905,5
1580664614.905,5
1580664624.905,5
1580664634.905,5
1580664644.905,5
1580664654.905,5
1580664664.905,5
1580664674.905,5
1580664684.905,5
1580664694.905,5
1580664704.905,5
1580664714.905,5
1580664724.905,5
1580664734.905,5
1580664744.905,5
1580664754.905,5
1580664764.905,5
1580664774.905,5
1580664784.905,5
1580664794.905,5
1580664804.905,5
1580664814.905,5
1580664824.905,5
1580664834.905,5
1580664844.905,5
1580664854.905,5
1580664864.905,5
1580664874.905,5
1580664884.905,5
1580664894.905,5
1580664904.905,5
1580664914.905,5
1580664924.905,5
1580664934.905,5
1580664944.905,5
1580664954.905,5
1580664964.905,5
1580664974.905,6
1580664984.905,6
1580664994.905,6
1580665004.905,6
1580665014.905,6
1580665024.905,6
1580665034.905,6
1580665044.905,6
1580665054.905,6
1580665064.905,6
1580665074.905,6
1580665084.905,6
1580665094.905,6
1580665104.905,6
1580665114.905,6
1580665124.905,6
1580665134.905,6
1580665144.905,6
1580665154.905,6
1580665164.905,6
1580665174.905,6
1580665184.905,6
1580665194.905,6
1580665204.905,6
1580665214.905,6
1580665224.905,6
1580665234.905,6
1580665244.905,6
1580665254.905,6
1580665264.905,6
1580665274.905,6
1580665284.905,6
1580665294.905,6
1580665304.905,6
1580665314.905,6
1580665324.905,6
1580665334.905,6
1580665344.905,6
1580665354.905,6
1580665364.905,6
1580665374.905,6
1580665384.905,7
1580665394.905,7
1580665404.905,7
1580665414.905,7
1580665424.905,7
1580665434.905,7
1580665444.905,7
1580665454.905,7
1580665464.905,7
1580665474.905,7
1580665484.905,7
1580665494.905,7
1580665504.905,7
1580665514.905,7
1580665524.905,7
1580665534.905,7
1580665544.905,7
1580665554.905,7
1580665564.905,7
1580665574.905,7
1580665584.905,7
1580665594.905,7
1580665604.905,7
1580665614.905,7
1580665624.905,7
1580665634.905,7
1580665644.905,7
1580665654.905,7
1580665664.905,7
1580665674.905,7
1580665684.905,7
1580665694.905,7
1580665704.905,7
1580665714.905,7
1580665724.905,7
1580665734.905,7
1580665744.905,7
1580665754.905,7
1580665774.905,8
1580665784.905,8
1580665794.905,8
1580665804.905,8
1580665814.905,8
1580665824.905,8
1580665834.905,8
1580665844.905,8
1580665854.905,8
1580665864.905,8
1580665874.905,8
1580665884.905,8
1580665894.905,8
1580665904.905,8
1580665914.905,8
1580665924.905,8
1580665934.905,8
1580665944.905,8
1580665954.905,8
1580665964.905,8
1580665974.905,8
1580665984.905,8
1580665994.905,8
1580666004.905,8
1580666014.905,8
1580666024.905,8
1580666034.905,8
1580666044.905,8
1580666054.905,8
1580666064.905,8
1580666074.905,8
1580666084.905,8
1580666094.905,8
1580666104.905,8
1580666124.905,8
1580666134.905,8
1580666144.905,8
1580666154.905,8
1580666164.905,8
1580666174.905,8
1580666184.905,8
1580666194.905,8
1580666204.905,8
1580666214.905,8
1580666224.905,8
1580666234.905,8
1580666244.905,8
1580666254.905,8
1580666264.905,8
1580666274.905,8
1580666284.905,8
1580666294.905,8
1580666304.905,8
1580666314.905,8
1580666324.905,8
1580666334.905,9
1580666344.905,9
1580666354.905,9
1580666374.905,9
1580666384.905,9
1580666394.905,9
1580666404.905,9
1580666414.905,9
1580666424.905,9
1580666434.905,9
1580666444.905,9
1580666454.905,9
1580666464.905,9
1580666474.905,9
1580666484.905,9
1580666494.905,9
1580666504.905,9
1580666514.905,9
1580666524.905,9
1580666534.905,9
1580666544.905,9
1580666554.905,9
1580666564.905,9
1580666574.905,9
1580666584.905,9
1580666594.905,9
1580666604.905,9
1580666614.905,9
1580666624.905,9
1580666634.905,9
1580666644.905,9
1580666654.905,9
1580666664.905,9
1580666674.905,9
1580666684.905,9
1580666694.905,9
1580666704.905,9
1580666714.905,9
1580666724.905,9
1580666734.905,9
1580666744.905,9
1580666754.905,9
1580666764.905,9
1580666774.905,9
1580666784.905,10
1580666794.905,10
1580666804.905,10
1580666814.905,10
1580666824.905,10
1580666834.905,10
1580666844.905,10
1580666854.905,10
1580666864.905,10
1580666874.905,10
1580666884.905,10
1580666894.905,10
1580666904.905,10
1580666914.905,10
1580666924.905,10
1580666934.905,10
1580666944.909,10
1580666954.905,10
1580666964.905,10
1580666974.905,10
1580666984.905,10
1580666994.905,10
1580667004.905,10
1580667014.905,10
1580667024.905,10
1580667034.905,10
1580667044.905,10
1580667054.905,10
1580667064.905,10
1580667074.905,10
1580667084.905,10
1580667094.905,10
1580667104.905,10
1580667114.905,10
1580667124.905,10
1580667134.905,10
1580667144.905,10
1580667154.905,10
1580667164.905,10
1580667174.905,10
1580667184.905,10
1580667194.905,10
1580667204.905,10
1580667214.905,10
1580667224.905,10
1580667234.905,10
1580667244.905,10
1580667254.905,10
1580667264.905,10
1580667274.905,10
1580667284.905,10
1580667294.905,10
1580667304.905,10
1580667314.905,10
1580667324.905,10
1580667334.905,10
1580667344.905,10
1580667354.905,10
1580667364.905,10
1580667374.905,10
1580667384.905,10
1580667394.905,10
1580667404.905,10
1580667414.905,10
1580667424.905,10
1580667434.905,11
1580667444.905,11
1580667454.905,11
1580667464.905,11
1580667474.905,11
1580667484.905,11
1580667494.905,11
1580667504.905,11
1580667514.905,11
1580667524.905,11
1580667544.905,11
1580667554.905,11
1580667564.905,11
1580667574.905,11
1580667594.905,11
1580667604.905,11
1580667614.905,11
1580667624.905,11
1580667634.905,11
1580667644.905,11
1580667654.905,11
1580667664.905,11
1580667674.905,11
1580667684.905,11
1580667694.905,11
1580667704.905,11
1580667714.905,11
1580667724.905,11
1580667734.905,11
1580667744.905,11
1580667754.905,11
1580667764.905,11
1580667774.905,11
1580667784.905,11
1580667794.905,11
1580667804.905,11
1580667814.905,11
1580667824.905,11
1580667834.905,11
1580667844.905,11
1580667854.905,11
1580667864.905,11
1580667874.905,11
1580667884.905,11
1580667894.905,11
1580667904.905,11
1580667914.905,11
1580667924.905,11
1580667934.905,11
1580667944.905,11
1580667954.905,11
1580667964.905,11
1580667974.905,12
1580667984.905,12
1580667994.905,12
1580668004.905,12
1580668014.905,12
1580668024.905,12
1580668034.905,12
1580668044.905,12
1580668054.905,12
1580668064.905,12
1580668074.905,12
1580668084.905,12
1580668094.905,12
1580668104.905,12
1580668114.905,12
1580668124.905,12
1580668134.905,12
1580668144.905,12
1580668154.905,12
1580668164.905,12
1580668174.905,12
1580668184.905,12
1580668194.905,12
1580668204.905,12
1580668214.905,12
1580668224.905,12
1580668234.905,12
1580668244.905,12
1580668254.905,12
1580668264.905,12
1580668274.905,12
1580668284.905,12
1580668294.905,12
1580668304.905,12
1580668314.905,12
1580668324.905,12
1580668334.905,12
1580668344.905,12
1580668354.905,12
1580668364.905,12
1580668384.905,12
1580668394.905,12
1580668404.905,12
1580668414.905,12
1580668434.905,12
1580668444.905,12
1580668454.905,12
1580668464.905,12
1580668474.906,12
1580668484.905,12
1580668494.905,12
1580668504.905,12
1580668514.905,12
1580668524.905,12
1580668534.905,12
1580668544.905,12
1580668554.905,13
1580668564.905,13
1580668574.905,13
1580668584.905,13
1580668594.905,13
1580668604.905,13
1580668614.905,13
1580668624.905,13
1580668634.905,13
1580668644.905,13
1580668654.905,13
1580668664.905,13
1580668674.905,13
1580668684.905,13
1580668694.905,13
1580668704.905,13
1580668714.905,13
1580668724.905,13
1580668734.905,13
1580668744.905,13
1580668754.905,13
1580668764.905,13
1580668774.905,13
1580668784.905,13
1580668794.905,13
1580668804.905,13
1580668814.905,13
1580668824.905,13
1580668834.905,13
1580668844.905,13
1580668854.905,13
1580668864.905,13
1580668874.905,13
1580668884.905,13
1580668894.905,13
1580668904.905,13
1580668914.905,13
1580668924.905,13
1580668934.905,13
1580668944.905,13
1580668954.905,13
1580668964.905,13
1580668974.905,13
1580668984.905,13
1580668994.905,13
1580669004.905,13
1580669014.905,13
1580669024.905,13
1580669034.905,13
1580669044.905,13
1580669054.905,13
1580669064.905,13
1580669074.905,13
1580669084.905,13
1580669094.905,14
1580669104.905,14
1580669114.905,14
1580669124.905,14
1580669134.905,14
1580669144.905,14
1580669154.905,14
1580669164.905,14
1580669174.905,14
1580669184.905,14
1580669194.905,14
1580669204.905,14
1580669214.905,14
1580669224.905,14
1580669234.905,14
1580669244.905,14
1580669254.905,14
1580669264.905,14
1580669274.905,14
1580669284.905,14
1580669294.905,14
1580669304.905,14
1580669314.905,14
1580669324.905,14
1580669334.905,14
1580669344.905,14
1580669354.905,14
1580669364.905,14
1580669374.905,14
1580669384.905,14
1580669394.905,14
1580669404.905,14
1580669414.905,14
1580669424.905,14
1580669434.905,14
1580669444.905,14
1580669454.905,14
1580669464.905,14
1580669474.905,14
1580669484.905,14
1580669494.905,14
1580669504.905,14
1580669514.905,14
1580669524.905,14
1580669534.905,14
1580669544.905,14
1580669554.905,14
1580669564.905,14
1580669574.905,14
1580669584.905,14
1580669594.905,14
1580669604.905,14
1580669614.905,14
1580669624.905,14
1580669634.905,14
1580669644.905,14
1580669654.905,14
1580669664.905,14
1580669674.905,14
1580669684.905,14
1580669694.905,14
1580669704.905,14
1580669714.905,14
1580669724.905,14
1580669734.905,14
1580669744.905,14
1580669754.905,14
1580669764.905,14
1580669774.905,14
1580669784.905,14
1580669794.905,14
1580669804.905,15
1580669814.905,15
1580669824.905,15
1580669834.905,15
1580669844.905,15
1580669854.905,15
1580669864.905,15
1580669874.905,15
1580669884.905,15
1580669894.905,15
1580669904.905,15
1580669914.905,15
