epoch,value
1580594935.022,42181
1580594945.004,42181
1580594955.004,42182
1580594965.004,42182
1580594975.004,42182
1580594985.004,42183
1580594995.004,42183
1580595005.004,42183
1580595015.004,42183
1580595025.004,42183
1580595035.004,42183
1580595045.006,42183
1580595055.004,42183
1580595065.004,42183
1580595075.004,42183
1580595085.004,42183
1580595095.004,42183
1580595105.006,42183
1580595115.005,42183
1580595125.004,42183
1580595135.004,42184
1580595145.005,42184
1580595155.004,42185
1580595165.004,42185
1580595175.004,42185
1580595185.004,42185
1580595195.004,42185
1580595205.004,42186
1580595215.004,42186
1580595225.004,42186
1580595235.004,42186
1580595245.004,42186
1580595255.004,42186
1580595265.004,42186
1580595275.004,42186
1580595285.004,42188
1580595295.007,42189
1580595305.005,42189
1580595315.005,42190
1580595325.004,42190
1580595335.006,42190
1580595345.004,42190
1580595355.004,42190
1580595365.003,42190
1580595375.004,42190
1580595385.004,42191
1580595395.004,42191
1580595405.004,42191
1580595415.004,42191
1580595425.004,42191
1580595435.004,42191
1580595445.004,42191
1580595455.007,42191
1580595465.006,42191
1580595475.004,42191
1580595485.004,42191
1580595495.004,42191
1580595505.004,42191
1580595515.004,42191
1580595525.004,42191
1580595535.004,42191
1580595545.004,42191
1580595555.004,42191
1580595565.004,42191
1580595575.006,42191
1580595585.004,42191
1580595595.004,42191
1580595605.004,42191
1580595615.004,42191
1580595625.004,42191
1580595635.005,42191
1580595645.006,42191
1580595655.004,42191
1580595665.004,42191
1580595675.004,42191
1580595685.004,42191
1580595695.004,42191
1580595705.004,42191
1580595715.004,42191
1580595725.004,42191
1580595735.004,42191
1580595745.004,42191
1580595755.004,42192
1580595765.004,42192
1580595775.004,42192
1580595785.004,42192
1580595795.004,42192
1580595805.004,42192
1580595815.004,42192
1580595825.004,42192
1580595835.004,42192
1580595845.006,42192
1580595855.004,42192
1580595865.004,42192
1580595875.004,42192
1580595885.004,42192
1580595895.004,42193
1580595905.004,42193
1580595915.004,42193
1580595925.006,42193
1580595935.004,42193
1580595945.004,42193
1580595955.004,42193
1580595965.004,42193
1580595975.006,42193
1580595985.004,42193
1580595995.004,42193
1580596005.004,42193
1580596015.007,42193
1580596025.006,42193
1580596035.004,42193
1580596045.004,42193
1580596055.004,42194
1580596065.004,42194
1580596075.004,42194
1580596085.003,42194
1580596095.004,42194
1580596105.004,42194
1580596115.004,42194
1580596125.004,42194
1580596135.004,42194
1580596145.004,42194
1580596155.004,42194
1580596165.004,42194
1580596175.006,42194
1580596185.005,42194
1580596195.006,42194
1580596205.007,42194
1580596215.004,42194
1580596225.004,42194
1580596235.004,42194
1580596245.004,42194
1580596255.004,42194
1580596265.005,42194
1580596275.004,42194
1580596285.006,42194
1580596295.004,42194
1580596305.004,42194
1580596315.004,42194
1580596325.004,42194
1580596335.005,42194
1580596345.004,42194
1580596355.006,42194
1580596365.004,42194
1580596375.004,42194
1580596385.004,42194
1580596395.004,42194
1580596405.005,42194
1580596415.004,42194
1580596425.005,42194
1580596435.004,42194
1580596445.005,42194
1580596455.004,42194
1580596465.004,42194
1580596475.004,42195
1580596485.004,42195
1580596495.004,42195
1580596505.003,42195
1580596515.004,42195
1580596525.004,42195
1580596535.006,42195
1580596545.004,42195
1580596555.004,42195
1580596565.004,42196
1580596575.004,42196
1580596585.005,42196
1580596595.004,42196
1580596605.004,42196
1580596615.009,42196
1580596625.004,42196
1580596635.004,42196
1580596645.007,42196
1580596655.004,42196
1580596665.004,42196
1580596675.004,42196
1580596685.004,42196
1580596695.004,42196
1580596705.004,42196
1580596715.004,42196
1580596725.004,42196
1580596735.004,42196
1580596745.004,42196
1580596755.004,42196
1580596765.006,42196
1580596775.004,42196
1580596785.004,42196
1580596795.004,42196
1580596805.004,42196
1580596815.005,42196
1580596825.004,42196
1580596835.005,42196
1580596845.004,42196
1580596855.005,42196
1580596865.005,42196
1580596875.004,42196
1580596885.005,42196
1580596895.004,42196
1580596905.005,42196
1580596915.004,42196
1580596925.003,42196
1580596935.004,42196
1580596945.004,42196
1580596955.004,42196
1580596965.004,42197
1580596975.004,42197
1580596985.004,42197
1580596995.004,42197
1580597005.004,42197
1580597015.004,42197
1580597025.004,42197
1580597035.004,42197
1580597045.004,42197
1580597055.005,42197
1580597065.004,42197
1580597075.004,42197
1580597085.004,42197
1580597095.004,42197
1580597105.006,42197
1580597115.004,42197
1580597125.004,42197
1580597135.005,42197
1580597145.006,42197
1580597155.004,42197
1580597165.004,42197
1580597175.004,42197
1580597185.004,42197
1580597195.004,42197
1580597205.004,42197
1580597215.004,42197
1580597225.004,42197
1580597235.004,42197
1580597245.004,42197
1580597255.004,42198
1580597265.004,42198
1580597275.004,42198
1580597285.004,42198
1580597295.004,42198
1580597305.005,42198
1580597315.006,42198
1580597325.006,42198
1580597335.004,42198
1580597345.004,42198
1580597355.004,42198
1580597365.004,42200
1580597375.004,42200
1580597385.004,42200
1580597395.004,42200
1580597405.004,42200
1580597415.004,42200
1580597425.009,42200
1580597435.004,42201
1580597445.004,42201
1580597455.004,42201
1580597465.004,42201
1580597475.004,42201
1580597485.005,42201
1580597495.005,42201
1580597505.004,42201
1580597515.004,42202
1580597525.004,42202
1580597535.004,42202
1580597545.004,42202
1580597555.003,42202
1580597565.006,42202
1580597575.005,42202
1580597585.004,42202
1580597595.004,42202
1580597605.004,42202
1580597615.004,42202
1580597625.004,42202
1580597635.004,42202
1580597645.004,42202
1580597655.003,42202
1580597665.004,42202
1580597675.004,42202
1580597685.004,42202
1580597695.003,42202
1580597705.003,42202
1580597715.004,42202
1580597725.004,42202
1580597735.004,42202
1580597745.003,42202
1580597755.004,42202
1580597765.006,42202
1580597775.004,42203
1580597785.004,42203
1580597795.004,42203
1580597805.004,42203
1580597815.005,42203
1580597825.005,42203
1580597835.004,42203
1580597845.005,42203
1580597855.004,42203
1580597865.004,42204
1580597875.004,42204
1580597885.004,42204
1580597895.004,42204
1580597905.004,42204
1580597915.004,42204
1580597925.004,42204
1580597935.006,42204
1580597945.004,42204
1580597955.006,42204
1580597965.005,42204
1580597975.005,42204
1580597985.006,42204
1580597995.004,42204
