epoch,value
1580215433.930,0
1580215443.930,0
1580215453.930,0
1580215463.930,6
1580215473.930,30
1580215483.930,37
1580215493.930,45
1580215503.930,46
1580215513.930,46
1580215523.930,48
1580215533.930,68
1580215543.930,77
1580215553.930,77
1580215563.930,102
1580215573.930,114
1580215583.930,114
1580215593.930,118
1580215603.930,120
1580215613.930,127
1580215623.930,143
1580215633.930,151
1580215643.930,151
1580215653.930,154
1580215663.930,158
1580215673.930,161
1580215683.930,162
1580215693.930,163
1580215703.930,163
1580215713.930,166
1580215723.930,177
1580215733.930,183
1580215743.930,186
1580215753.930,187
1580215763.930,187
1580215773.930,187
1580215783.930,187
1580215793.930,187
1580215803.930,187
1580215813.930,187
1580215823.930,187
1580215833.930,187
1580215843.930,187
1580215853.930,187
1580215863.930,187
1580215873.930,187
1580215883.930,187
1580215893.930,188
1580215903.930,188
1580215913.930,188
1580215923.930,188
1580215933.930,188
1580215943.930,188
1580215953.930,188
1580215963.930,188
1580215973.930,188
1580215983.930,188
1580215993.930,188
1580216003.930,188
1580216013.930,188
1580216023.930,189
1580216033.930,189
1580216043.930,189
1580216053.930,189
1580216063.930,189
1580216073.930,189
1580216083.930,189
1580216093.930,189
1580216103.930,189
1580216113.930,189
1580216123.930,189
1580216133.930,189
1580216143.930,189
1580216153.930,189
1580216163.930,189
1580216173.930,189
1580216183.930,189
1580216193.930,189
1580216203.930,189
1580216213.930,189
1580216223.930,189
1580216233.930,189
1580216243.930,189
1580216253.930,189
1580216263.930,189
1580216273.930,189
1580216283.930,189
1580216293.930,189
1580216303.930,189
1580216313.930,190
1580216323.930,190
1580216333.930,190
1580216343.930,190
1580216353.930,190
1580216363.930,190
1580216373.933,190
1580216383.930,190
1580216393.930,190
1580216403.930,190
1580216413.930,190
1580216423.930,190
1580216433.930,190
1580216443.930,191
1580216453.930,191
1580216463.930,191
1580216473.930,191
1580216483.930,191
1580216493.930,191
1580216503.930,191
1580216513.930,191
1580216523.930,191
1580216533.930,191
1580216543.930,191
1580216553.930,192
1580216563.930,192
1580216573.930,192
1580216583.930,192
1580216593.930,192
1580216603.930,192
1580216613.930,192
1580216623.930,192
1580216633.930,192
1580216643.930,192
1580216653.930,192
1580216663.930,192
1580216673.930,192
1580216683.930,192
1580216693.930,193
1580216703.930,193
1580216713.930,193
1580216723.930,193
1580216733.930,193
1580216743.930,193
1580216753.930,193
1580216763.930,193
1580216773.930,193
1580216783.930,193
1580216793.930,193
1580216803.930,193
1580216813.930,193
1580216823.930,193
1580216833.930,193
1580216843.930,193
1580216853.930,194
1580216863.930,194
1580216873.930,194
1580216883.930,194
1580216893.930,194
1580216903.930,194
1580216913.930,194
1580216923.930,194
1580216933.930,194
1580216943.930,194
1580216953.930,194
1580216963.930,194
1580216973.930,194
1580216983.930,194
1580216993.930,194
1580217003.930,194
1580217013.930,194
1580217023.930,194
1580217033.930,194
1580217043.930,194
1580217053.930,194
1580217063.930,194
1580217073.930,194
1580217083.930,195
1580217093.930,195
1580217103.930,195
1580217113.930,195
1580217123.931,195
1580217133.930,195
1580217143.930,195
1580217153.930,195
1580217163.930,195
1580217173.930,195
1580217183.930,195
1580217193.930,195
1580217203.930,195
1580217213.930,195
1580217223.930,195
1580217233.930,195
1580217243.930,195
1580217253.930,195
1580217263.930,195
1580217273.930,195
1580217283.930,195
1580217293.930,195
1580217303.930,195
1580217313.930,195
1580217323.930,195
1580217333.930,195
1580217343.930,195
1580217353.930,195
1580217363.930,195
1580217373.930,195
1580217383.930,195
1580217393.930,195
1580217403.930,196
1580217413.930,196
1580217423.930,196
1580217433.930,196
1580217443.930,196
1580217453.930,196
1580217463.930,196
1580217473.930,196
1580217483.930,196
1580217493.930,196
1580217503.930,196
1580217513.930,196
1580217523.930,196
1580217533.930,196
1580217543.930,196
1580217553.930,196
1580217563.930,196
1580217573.934,197
1580217583.930,197
1580217593.930,197
1580217603.930,197
1580217613.930,197
1580217623.930,197
1580217633.931,197
1580217643.930,197
1580217653.930,197
1580217663.930,197
1580217673.930,197
1580217683.930,197
1580217693.930,197
1580217703.930,197
1580217713.930,197
1580217723.930,197
1580217733.930,197
1580217743.930,197
1580217753.930,197
1580217763.930,198
1580217773.930,198
1580217783.930,198
1580217793.930,198
1580217803.930,198
1580217813.930,198
1580217823.930,198
1580217833.930,198
1580217843.930,198
1580217853.930,198
1580217863.930,198
1580217873.930,198
1580217883.930,198
1580217893.930,198
1580217903.930,198
1580217913.930,198
1580217923.930,198
1580217933.930,198
1580217943.930,198
1580217953.930,198
1580217963.930,198
1580217973.930,198
1580217983.930,198
1580217993.930,198
1580218003.931,198
1580218013.930,198
1580218023.930,198
1580218033.930,198
1580218043.930,198
1580218053.930,198
1580218063.930,198
1580218073.930,198
1580218083.930,198
1580218093.930,198
1580218103.930,198
1580218113.930,198
1580218123.930,198
1580218133.930,199
1580218143.930,199
1580218153.930,199
1580218163.930,199
1580218173.930,199
