epoch,value
1579927299.095,0
1579927309.094,0
1579927319.094,0
1579927329.095,0
1579927339.095,1
1579927349.094,1
1579927359.095,2
1579927369.094,6
1579927379.094,14
1579927389.095,14
1579927399.094,15
1579927409.094,15
1579927419.094,18
1579927429.095,23
1579927439.094,29
1579927449.094,33
1579927459.094,41
1579927469.094,41
1579927479.094,43
1579927489.094,60
1579927499.095,68
1579927509.095,80
1579927519.094,98
1579927529.094,120
1579927539.097,142
1579927549.094,171
1579927559.094,180
1579927569.094,208
1579927579.094,221
1579927589.094,228
1579927599.094,233
1579927609.095,250
1579927619.094,281
1579927629.094,293
1579927639.094,294
1579927649.094,294
1579927659.095,294
1579927669.094,294
1579927679.094,294
1579927689.094,294
1579927699.094,294
1579927709.094,294
1579927719.094,294
1579927729.094,294
1579927739.094,294
1579927749.094,294
1579927759.094,294
1579927769.094,294
1579927779.094,294
1579927789.095,294
1579927799.094,294
1579927809.095,294
1579927819.095,294
1579927829.095,294
1579927839.094,294
1579927849.094,294
1579927859.095,294
1579927869.094,294
1579927879.094,294
1579927889.094,294
1579927899.101,294
1579927909.094,294
1579927919.094,295
1579927929.094,295
1579927939.101,295
1579927949.094,295
1579927959.095,295
1579927969.095,295
1579927979.094,295
1579927989.094,295
1579927999.094,295
1579928009.094,295
1579928019.094,295
1579928029.094,295
1579928039.094,295
1579928049.095,295
1579928059.097,295
1579928069.094,295
1579928079.095,295
1579928089.094,295
1579928099.094,295
1579928109.094,295
1579928119.095,295
1579928129.094,295
1579928139.094,295
1579928149.094,295
1579928159.095,295
1579928169.094,295
1579928179.094,296
1579928189.095,296
1579928199.094,296
1579928209.094,296
1579928219.094,296
1579928229.094,296
1579928239.095,296
1579928249.094,296
1579928259.094,296
1579928269.094,296
1579928279.095,296
1579928289.094,296
1579928299.094,296
1579928309.094,297
1579928319.094,297
1579928329.094,297
1579928339.095,297
1579928349.095,297
1579928359.094,297
1579928369.094,297
1579928379.094,297
1579928389.094,297
1579928399.094,297
1579928409.095,297
1579928419.094,297
1579928429.094,297
1579928439.094,297
1579928449.094,297
1579928459.094,298
1579928469.095,298
1579928479.094,298
1579928489.095,298
1579928499.094,298
1579928509.094,298
1579928519.094,298
1579928529.095,298
1579928539.094,298
1579928549.094,298
1579928559.094,298
1579928569.094,298
1579928579.095,298
1579928589.094,298
1579928599.094,298
1579928609.095,298
1579928619.094,298
1579928629.094,298
1579928639.094,298
1579928649.094,298
1579928659.099,298
1579928669.095,298
1579928679.094,298
1579928689.094,298
1579928699.094,298
1579928709.094,298
1579928719.095,298
1579928729.094,298
1579928739.094,298
1579928749.095,298
1579928759.094,298
1579928769.094,298
1579928779.094,298
1579928789.094,298
1579928799.094,298
1579928809.101,298
1579928819.095,298
1579928829.096,298
1579928839.094,298
1579928849.094,298
1579928859.094,298
1579928869.094,298
1579928879.094,298
1579928889.094,298
1579928899.094,298
1579928909.094,298
1579928919.094,298
1579928929.094,298
1579928939.094,298
1579928949.095,298
1579928959.094,298
1579928969.094,298
1579928979.094,298
1579928989.094,298
1579928999.094,298
1579929009.094,298
1579929019.095,298
1579929029.094,298
1579929039.094,298
1579929049.101,298
1579929059.094,298
1579929069.095,298
1579929079.094,299
1579929089.095,299
1579929099.094,299
1579929109.095,299
1579929119.094,299
1579929129.094,299
1579929139.094,299
1579929149.094,299
1579929159.094,299
1579929169.095,299
1579929179.094,299
1579929189.094,299
1579929199.094,299
1579929209.095,299
1579929219.094,299
1579929229.094,299
1579929239.095,299
1579929249.095,299
1579929259.094,299
1579929269.095,299
1579929279.094,299
1579929289.094,299
1579929299.094,299
1579929309.094,299
1579929319.094,299
1579929329.094,299
1579929339.101,299
1579929349.094,299
1579929359.095,299
1579929369.094,299
1579929379.094,299
1579929389.095,299
1579929399.094,299
1579929409.096,299
1579929419.094,299
1579929429.094,299
1579929439.094,299
1579929449.094,299
1579929459.094,299
1579929469.095,299
1579929479.094,299
1579929489.094,299
1579929499.094,299
1579929509.094,299
1579929519.094,300
1579929529.095,300
1579929539.094,300
1579929549.094,300
1579929559.094,300
1579929569.094,300
1579929579.094,300
1579929589.094,300
1579929599.094,300
1579929609.095,300
1579929619.094,300
1579929629.094,300
1579929639.094,300
1579929649.094,300
1579929659.094,300
1579929669.095,300
1579929679.094,300
1579929689.094,300
1579929699.095,300
1579929709.094,300
1579929719.094,300
1579929729.094,300
1579929739.095,300
1579929749.094,300
1579929759.094,300
1579929769.095,300
1579929779.095,300
1579929789.094,300
1579929799.095,300
1579929809.094,300
1579929819.094,300
1579929829.094,300
1579929839.094,300
1579929849.094,300
1579929859.094,300
1579929869.094,300
1579929879.095,300
1579929889.094,300
1579929899.094,300
1579929909.095,300
1579929919.095,300
1579929929.095,300
1579929939.094,300
1579929949.094,300
1579929959.094,300
1579929969.095,300
1579929979.094,300
1579929989.094,300
1579929999.094,300
1579930009.094,300
1579930019.095,300
1579930029.094,300
