epoch,value
1580661755.412,423916
1580661765.390,423917
1580661775.390,423917
1580661785.393,423917
1580661795.391,423918
1580661805.391,423918
1580661815.390,423918
1580661825.391,423918
1580661835.390,423918
1580661845.391,423920
1580661855.390,423922
1580661865.393,423922
1580661875.390,423923
1580661885.390,423925
1580661895.390,423926
1580661905.390,423926
1580661915.390,423926
1580661925.391,423927
1580661935.390,423927
1580661945.390,423928
1580661955.390,423928
1580661965.390,423928
1580661975.392,423928
1580661985.390,423928
1580661995.390,423928
1580662005.390,423928
1580662015.390,423929
1580662025.390,423930
1580662035.390,423930
1580662045.391,423930
1580662055.390,423930
1580662065.390,423932
1580662075.390,423932
1580662085.391,423932
1580662095.390,423932
1580662105.390,423933
1580662115.390,423933
1580662125.391,423933
1580662135.390,423933
1580662145.390,423933
1580662155.390,423933
1580662165.391,423934
1580662175.390,423934
1580662185.390,423935
1580662195.390,423935
1580662205.390,423935
1580662215.390,423935
1580662225.391,423936
1580662235.390,423936
1580662245.390,423936
1580662255.390,423936
1580662265.390,423937
1580662275.390,423938
1580662285.394,423939
1580662295.390,423940
1580662305.390,423940
1580662315.391,423941
1580662325.390,423941
1580662335.390,423941
1580662345.391,423943
1580662355.390,423944
1580662365.390,423944
1580662375.390,423945
1580662385.390,423945
1580662395.390,423945
1580662405.391,423947
1580662415.390,423948
1580662425.390,423948
1580662435.390,423950
1580662445.390,423950
1580662455.392,423952
1580662465.390,423953
1580662475.390,423953
1580662485.390,423953
1580662495.390,423954
1580662505.391,423954
1580662515.390,423954
1580662525.390,423955
1580662535.390,423955
1580662545.390,423955
1580662555.391,423957
1580662565.390,423957
1580662575.390,423957
1580662585.392,423957
1580662595.390,423958
1580662605.390,423958
1580662615.390,423959
1580662625.390,423959
1580662635.390,423960
1580662645.391,423960
1580662655.390,423961
1580662665.390,423961
1580662675.390,423964
1580662685.390,423966
1580662695.390,423966
1580662705.390,423967
1580662715.390,423968
1580662725.390,423968
1580662735.390,423969
1580662745.390,423970
1580662755.390,423972
1580662765.390,423974
1580662775.390,423974
1580662785.390,423975
1580662795.390,423975
1580662805.390,423975
1580662815.390,423975
1580662825.390,423975
1580662835.390,423976
1580662845.390,423977
1580662855.390,423978
1580662865.390,423978
1580662875.390,423978
1580662885.391,423978
1580662895.390,423980
1580662905.390,423980
1580662915.390,423980
1580662925.390,423980
1580662935.390,423981
1580662945.390,423982
1580662955.391,423983
1580662965.390,423984
1580662975.390,423984
1580662985.390,423984
1580662995.390,423985
1580663005.390,423985
1580663015.390,423987
1580663025.390,423987
1580663035.390,423989
1580663045.390,423990
1580663055.390,423990
1580663065.390,423991
1580663075.390,423991
1580663085.391,423991
1580663095.390,423992
1580663105.390,423993
1580663115.390,423994
1580663125.390,423996
1580663135.391,423996
1580663145.390,423996
1580663155.390,423997
1580663165.390,423997
1580663175.390,423997
1580663185.390,423998
1580663195.390,423998
1580663205.390,423998
1580663215.391,423998
1580663225.390,423998
1580663235.391,423998
1580663245.390,423999
1580663255.390,424000
1580663265.390,424000
1580663275.390,424001
1580663285.390,424001
1580663295.390,424001
1580663305.390,424002
1580663315.391,424002
1580663325.390,424002
1580663335.390,424003
1580663345.390,424004
1580663355.390,424004
1580663365.390,424006
1580663375.390,424007
1580663385.390,424007
1580663395.391,424008
1580663405.390,424008
1580663415.390,424010
1580663425.391,424012
1580663435.390,424013
1580663445.390,424013
1580663455.390,424014
1580663465.390,424014
1580663475.390,424014
1580663485.390,424014
1580663495.390,424014
1580663505.390,424016
1580663515.390,424017
1580663525.390,424017
1580663535.390,424017
1580663545.390,424019
1580663555.390,424021
1580663565.391,424021
1580663575.390,424022
1580663585.390,424022
1580663595.390,424022
1580663605.390,424022
1580663615.390,424023
1580663625.390,424023
1580663635.390,424024
1580663645.390,424024
1580663655.390,424024
1580663665.391,424025
1580663675.390,424027
1580663685.390,424028
1580663695.391,424029
1580663705.390,424029
1580663715.390,424031
1580663725.390,424033
1580663735.391,424033
1580663745.390,424034
1580663755.390,424034
1580663765.390,424034
1580663775.390,424034
1580663785.392,424034
1580663795.390,424034
1580663805.390,424034
1580663815.391,424036
1580663825.391,424037
1580663835.390,424038
1580663845.390,424040
1580663855.390,424044
1580663865.390,424045
1580663875.390,424045
1580663885.392,424045
1580663895.390,424046
1580663905.390,424046
1580663915.390,424047
1580663925.391,424048
1580663935.390,424049
1580663945.390,424050
1580663955.390,424050
1580663965.390,424052
1580663975.390,424052
1580663985.390,424053
1580663995.390,424053
1580664005.390,424054
1580664015.390,424054
1580664025.390,424056
1580664035.391,424057
1580664045.390,424058
1580664055.390,424059
1580664065.391,424060
1580664075.390,424062
1580664085.391,424064
1580664095.390,424064
1580664105.390,424064
1580664115.390,424065
1580664125.390,424065
1580664135.390,424065
1580664145.391,424065
1580664155.390,424065
1580664165.390,424065
1580664175.390,424065
1580664185.391,424065
1580664195.390,424066
1580664205.390,424066
1580664215.391,424067
1580664225.390,424068
1580664235.390,424068
1580664245.390,424068
1580664255.390,424068
1580664265.390,424068
1580664275.390,424069
1580664285.392,424072
1580664295.390,424072
1580664305.390,424073
1580664315.390,424073
1580664325.390,424074
1580664335.390,424075
1580664345.390,424075
1580664355.390,424076
1580664365.390,424076
1580664375.390,424077
1580664385.390,424078
1580664395.390,424079
1580664405.390,424079
1580664415.390,424079
1580664425.390,424080
1580664435.390,424080
1580664445.391,424082
1580664455.390,424082
1580664465.390,424083
1580664475.390,424083
1580664485.390,424083
1580664495.391,424084
1580664505.391,424085
1580664515.390,424086
1580664525.390,424086
1580664535.390,424086
1580664545.390,424086
1580664555.390,424087
1580664565.390,424087
1580664575.390,424088
1580664585.390,424088
1580664595.390,424090
1580664605.390,424092
1580664615.390,424092
1580664625.390,424093
1580664635.390,424094
1580664645.390,424094
1580664655.390,424096
1580664665.390,424097
1580664675.390,424097
1580664685.390,424098
1580664695.391,424098
1580664705.391,424098
1580664715.390,424099
1580664725.390,424100
1580664735.390,424100
1580664745.390,424100
1580664755.391,424100
1580664765.390,424101
1580664775.390,424103
1580664785.390,424103
1580664795.390,424104
1580664805.390,424106
1580664815.390,424108
1580664825.392,424108
1580664835.390,424108
1580664845.390,424109
1580664855.390,424110
1580664865.390,424110
1580664875.390,424112
1580664885.391,424112
1580664895.390,424113
1580664905.390,424114
1580664915.390,424116
1580664925.390,424116
1580664935.390,424116
1580664945.390,424116
1580664955.390,424118
1580664965.390,424118
1580664975.390,424119
1580664985.390,424120
1580664995.390,424120
1580665005.395,424121
1580665015.390,424122
1580665025.391,424123
1580665035.390,424124
1580665045.390,424124
1580665055.390,424124
1580665065.390,424125
1580665075.390,424126
1580665085.390,424126
1580665095.390,424126
1580665105.390,424126
1580665115.390,424127
1580665125.390,424127
1580665135.390,424127
1580665145.390,424129
1580665155.390,424129
1580665165.390,424130
1580665175.392,424130
1580665185.390,424131
1580665195.391,424132
1580665205.390,424132
1580665215.391,424132
1580665225.390,424133
1580665235.390,424133
1580665245.390,424133
1580665255.390,424133
1580665265.390,424133
1580665275.390,424134
1580665285.395,424135
1580665295.390,424135
1580665305.390,424135
1580665315.390,424135
1580665325.390,424135
1580665335.390,424136
1580665345.390,424136
1580665355.390,424136
1580665365.391,424136
1580665375.390,424136
1580665385.390,424137
1580665395.390,424137
1580665405.390,424138
1580665415.391,424139
1580665425.395,424139
1580665435.390,424140
1580665445.390,424140
1580665455.390,424144
1580665465.390,424144
1580665475.390,424145
1580665485.390,424146
1580665495.390,424146
1580665505.390,424146
1580665515.390,424148
1580665525.390,424149
1580665535.390,424150
1580665545.390,424150
1580665555.390,424151
1580665565.390,424151
1580665575.390,424152
1580665585.390,424153
1580665595.390,424153
1580665605.390,424153
1580665615.390,424154
1580665625.390,424154
1580665635.390,424154
1580665645.390,424154
1580665655.390,424154
1580665665.390,424154
1580665675.390,424154
1580665685.390,424154
1580665695.390,424155
1580665705.390,424156
1580665715.390,424156
1580665725.390,424157
1580665735.390,424158
1580665745.392,424159
1580665755.390,424159
1580665765.390,424162
1580665775.390,424162
1580665785.390,424164
1580665795.390,424165
1580665805.390,424165
1580665815.391,424167
1580665825.390,424167
1580665835.390,424168
1580665845.390,424168
1580665855.390,424169
1580665865.390,424170
1580665875.391,424170
1580665885.390,424172
1580665895.390,424173
1580665905.390,424174
1580665915.390,424175
1580665925.390,424176
1580665935.390,424176
1580665945.391,424178
1580665955.390,424178
1580665965.390,424178
1580665975.391,424180
1580665985.390,424180
1580665995.390,424180
1580666005.390,424180
1580666015.390,424180
1580666025.390,424180
1580666035.390,424183
1580666045.390,424184
1580666055.390,424184
1580666065.390,424185
1580666075.393,424185
1580666085.390,424186
1580666095.390,424187
1580666105.390,424187
1580666115.390,424189
1580666125.390,424189
1580666135.390,424189
1580666145.390,424189
1580666155.390,424190
1580666165.391,424190
1580666175.390,424190
1580666185.390,424192
1580666195.390,424192
1580666205.390,424193
1580666215.390,424193
1580666225.390,424194
1580666235.390,424196
1580666245.390,424196
1580666255.391,424199
1580666265.391,424199
1580666275.391,424201
1580666285.390,424201
1580666295.390,424202
1580666305.390,424203
1580666315.390,424203
1580666325.390,424203
1580666335.390,424205
1580666345.390,424206
1580666355.390,424206
1580666365.390,424207
1580666375.390,424207
1580666385.390,424209
1580666395.390,424210
1580666405.390,424211
1580666415.390,424211
1580666425.390,424211
1580666435.390,424211
1580666445.390,424211
1580666455.390,424212
1580666465.390,424214
1580666475.390,424215
1580666485.390,424216
1580666495.390,424216
1580666505.390,424217
1580666515.390,424218
1580666525.390,424218
1580666535.390,424218
1580666545.390,424219
1580666555.390,424219
1580666565.390,424220
1580666575.391,424220
1580666585.390,424220
1580666595.390,424220
1580666605.390,424221
1580666615.390,424222
1580666625.390,424223
1580666635.391,424223
1580666645.390,424224
1580666655.390,424225
1580666665.390,424226
1580666675.390,424226
1580666685.390,424227
1580666695.390,424229
1580666705.391,424229
1580666715.390,424229
1580666725.390,424230
1580666735.390,424230
1580666745.390,424230
1580666755.390,424232
1580666765.390,424233
1580666775.391,424234
1580666785.390,424234
1580666795.390,424235
1580666805.390,424235
1580666815.390,424236
1580666825.390,424238
1580666835.390,424239
1580666845.390,424239
1580666855.390,424240
1580666865.390,424240
1580666875.390,424240
1580666885.390,424240
1580666895.390,424242
1580666905.390,424244
1580666915.390,424244
1580666925.390,424244
1580666935.390,424244
1580666945.390,424244
1580666955.390,424245
1580666965.390,424246
1580666975.390,424246
1580666985.390,424247
1580666995.390,424248
1580667005.390,424249
1580667015.390,424250
1580667025.390,424252
1580667035.392,424252
1580667045.390,424252
1580667055.390,424253
1580667065.390,424254
1580667075.390,424256
1580667085.391,424258
1580667095.390,424258
1580667105.390,424258
1580667115.390,424260
1580667125.390,424260
1580667135.390,424262
1580667145.390,424262
1580667155.391,424262
1580667165.392,424262
1580667175.390,424262
1580667185.390,424264
1580667195.390,424265
1580667205.390,424265
1580667215.392,424266
1580667225.390,424266
1580667235.390,424267
1580667245.390,424268
1580667255.390,424268
1580667265.390,424270
1580667275.390,424272
1580667285.390,424272
1580667295.390,424272
1580667305.390,424272
1580667315.390,424274
1580667325.391,424274
1580667335.390,424275
1580667345.390,424275
1580667355.391,424275
1580667365.390,424275
1580667375.390,424276
1580667385.390,424276
1580667395.390,424276
1580667405.390,424278
1580667415.390,424279
1580667425.390,424279
1580667435.390,424279
1580667445.390,424281
1580667455.390,424282
1580667465.390,424283
1580667475.390,424283
1580667485.390,424283
1580667495.390,424283
1580667505.390,424283
1580667515.390,424283
1580667525.390,424285
1580667535.390,424286
1580667545.390,424286
1580667555.390,424287
1580667565.390,424288
1580667575.390,424288
1580667585.390,424288
1580667595.390,424288
1580667605.390,424289
1580667615.390,424289
1580667625.390,424289
1580667635.390,424290
1580667645.390,424290
1580667655.390,424291
1580667665.390,424291
1580667675.390,424291
1580667685.390,424292
1580667695.390,424292
1580667705.390,424294
1580667715.390,424296
1580667725.390,424296
1580667735.390,424298
1580667745.390,424299
1580667755.390,424299
1580667765.391,424299
1580667775.393,424299
1580667785.390,424300
1580667795.391,424300
1580667805.390,424300
1580667815.392,424301
1580667825.390,424302
1580667835.390,424302
1580667845.390,424302
1580667855.390,424302
1580667865.390,424304
1580667875.390,424304
1580667885.390,424304
1580667895.390,424305
1580667905.390,424306
1580667915.390,424308
1580667925.392,424309
1580667935.390,424309
1580667945.390,424310
1580667955.390,424310
1580667965.390,424310
1580667975.390,424310
1580667985.390,424311
1580667995.390,424311
1580668005.390,424313
1580668015.390,424313
1580668025.390,424313
1580668035.390,424315
1580668045.390,424315
1580668055.391,424316
1580668065.390,424317
1580668075.390,424318
1580668085.390,424320
1580668095.390,424320
1580668105.390,424320
1580668115.390,424321
1580668125.390,424321
1580668135.390,424321
1580668145.390,424322
1580668155.390,424322
1580668165.390,424322
1580668175.392,424323
1580668185.390,424324
1580668195.390,424325
1580668205.390,424325
1580668215.392,424325
1580668225.390,424326
1580668235.390,424326
1580668245.392,424326
1580668255.392,424328
1580668265.390,424329
1580668275.390,424329
1580668285.390,424330
1580668295.390,424330
1580668305.391,424330
1580668315.390,424331
1580668325.390,424331
1580668335.390,424333
1580668345.390,424334
1580668355.392,424335
1580668365.390,424335
1580668375.392,424335
1580668385.390,424336
1580668395.390,424337
1580668405.390,424337
1580668415.390,424338
1580668425.390,424338
1580668435.390,424340
1580668445.390,424343
1580668455.390,424344
1580668465.390,424345
1580668475.390,424346
1580668485.390,424346
1580668495.390,424347
1580668505.390,424348
1580668515.390,424349
1580668525.390,424350
1580668535.390,424352
1580668545.390,424352
1580668555.390,424352
1580668565.390,424352
1580668575.390,424352
1580668585.390,424352
1580668595.390,424353
1580668605.390,424353
1580668615.390,424353
1580668625.390,424354
1580668635.390,424355
1580668645.390,424355
1580668655.390,424356
1580668665.391,424357
1580668675.391,424358
1580668685.390,424358
1580668695.390,424360
1580668705.390,424364
1580668715.390,424364
1580668725.390,424364
1580668735.390,424365
1580668745.390,424367
1580668755.390,424368
1580668765.390,424368
1580668775.390,424369
1580668785.390,424370
1580668795.390,424372
1580668805.390,424372
1580668815.390,424373
1580668825.390,424375
1580668835.390,424375
1580668845.390,424376
1580668855.390,424376
1580668865.390,424376
1580668875.390,424377
1580668885.391,424377
1580668895.393,424379
1580668905.390,424379
1580668915.390,424379
1580668925.390,424379
1580668935.390,424380
1580668945.390,424381
1580668955.390,424382
1580668965.390,424384
1580668975.390,424385
1580668985.390,424385
1580668995.390,424385
1580669005.390,424385
1580669015.390,424385
1580669025.390,424386
1580669035.390,424386
1580669045.390,424390
1580669055.390,424392
1580669065.390,424392
1580669075.390,424392
1580669085.391,424393
1580669095.391,424393
1580669105.390,424395
1580669115.390,424395
1580669125.390,424395
1580669135.390,424396
1580669145.390,424396
1580669155.390,424397
1580669165.390,424398
1580669175.390,424398
1580669185.390,424399
1580669195.390,424399
1580669205.390,424399
1580669215.390,424399
1580669225.390,424400
1580669235.390,424401
1580669245.390,424403
1580669255.390,424403
1580669265.390,424404
1580669275.390,424404
1580669285.390,424406
1580669295.390,424408
1580669305.390,424408
1580669315.390,424408
1580669325.390,424409
1580669335.390,424410
1580669345.390,424410
1580669355.390,424410
1580669365.390,424412
1580669375.390,424412
1580669385.390,424412
1580669395.390,424412
1580669405.390,424412
1580669415.390,424413
1580669425.390,424414
1580669435.390,424414
1580669445.390,424414
1580669455.390,424414
1580669465.390,424414
1580669475.390,424415
1580669485.390,424416
1580669495.390,424417
1580669505.390,424417
1580669515.390,424418
1580669525.390,424418
1580669535.390,424421
1580669545.391,424422
1580669555.390,424422
1580669565.392,424423
1580669575.391,424423
1580669585.390,424423
1580669595.390,424423
1580669605.390,424424
1580669615.390,424424
1580669625.390,424424
1580669635.390,424425
1580669645.390,424426
1580669655.390,424426
1580669665.390,424428
1580669675.392,424428
1580669685.390,424429
1580669695.390,424429
1580669705.390,424430
1580669715.390,424430
1580669725.390,424432
1580669735.390,424433
1580669745.390,424433
1580669755.390,424435
1580669765.390,424436
1580669775.391,424437
1580669785.390,424437
1580669795.390,424437
1580669805.390,424438
1580669815.390,424439
1580669825.390,424440
1580669835.390,424442
1580669845.390,424443
1580669855.390,424443
1580669865.390,424445
1580669875.390,424445
1580669885.390,424445
1580669895.391,424445
1580669905.390,424446
1580669915.390,424447
