epoch,value
1579797874.232,237114
1579797884.212,237114
1579797894.213,237114
1579797904.213,237114
1579797914.213,237114
1579797924.212,237114
1579797934.212,237114
1579797944.215,237115
1579797954.212,237115
1579797964.212,237116
1579797974.212,237116
1579797984.212,237116
1579797994.212,237116
1579798004.212,237116
1579798014.212,237116
1579798024.212,237116
1579798034.212,237116
1579798044.213,237118
1579798054.212,237119
1579798064.213,237119
1579798074.212,237120
1579798084.212,237120
1579798094.213,237120
1579798104.212,237120
1579798114.212,237122
1579798124.212,237122
1579798134.212,237122
1579798144.212,237122
1579798154.212,237122
1579798164.212,237122
1579798174.212,237122
1579798184.214,237123
1579798194.212,237124
1579798204.212,237124
1579798214.213,237124
1579798224.212,237125
1579798234.212,237125
1579798244.212,237126
1579798254.213,237126
1579798264.212,237126
1579798274.212,237127
1579798284.212,237128
1579798294.212,237128
1579798304.213,237131
1579798314.213,237131
1579798324.212,237131
1579798334.212,237133
1579798344.212,237133
1579798354.212,237135
1579798364.212,237136
1579798374.212,237136
1579798384.212,237137
1579798394.212,237137
1579798404.212,237137
1579798414.214,237137
1579798424.212,237137
1579798434.212,237139
1579798444.213,237139
1579798454.214,237139
1579798464.212,237139
1579798474.213,237140
1579798484.212,237140
1579798494.212,237142
1579798504.212,237142
1579798514.212,237144
1579798524.212,237144
1579798534.211,237146
1579798544.213,237146
1579798554.212,237147
1579798564.212,237148
1579798574.212,237151
1579798584.213,237151
1579798594.214,237151
1579798604.212,237151
1579798614.214,237152
1579798624.212,237153
1579798634.212,237153
1579798644.212,237153
1579798654.212,237155
1579798664.212,237156
1579798674.213,237158
1579798684.212,237158
1579798694.212,237158
1579798704.212,237160
1579798714.213,237161
1579798724.213,237161
1579798734.212,237162
1579798744.212,237163
1579798754.214,237164
1579798764.212,237164
1579798774.212,237165
1579798784.212,237165
1579798794.213,237166
1579798804.212,237166
1579798814.212,237167
1579798824.212,237167
1579798834.212,237167
1579798844.213,237167
1579798854.212,237167
1579798864.212,237168
1579798874.213,237172
1579798884.212,237172
1579798894.212,237173
1579798904.213,237175
1579798914.212,237177
1579798924.212,237178
1579798934.212,237179
1579798944.213,237179
1579798954.212,237180
1579798964.212,237180
1579798974.212,237180
1579798984.212,237180
1579798994.212,237180
1579799004.212,237180
1579799014.212,237183
1579799024.213,237183
1579799034.212,237183
1579799044.212,237184
1579799054.212,237184
1579799064.212,237184
1579799074.212,237186
1579799084.212,237187
1579799094.212,237188
1579799104.212,237188
1579799114.213,237188
1579799124.215,237189
1579799134.215,237192
1579799144.212,237193
1579799154.212,237193
1579799164.213,237193
1579799174.212,237193
1579799184.212,237194
1579799194.212,237194
1579799204.212,237196
1579799214.212,237196
1579799224.212,237197
1579799234.212,237198
1579799244.213,237198
1579799254.212,237198
1579799264.212,237198
1579799274.212,237199
1579799284.212,237200
1579799294.213,237200
1579799304.212,237200
1579799314.212,237200
1579799324.212,237201
1579799334.212,237201
1579799344.215,237202
1579799354.212,237203
1579799364.212,237204
1579799374.212,237206
1579799384.212,237207
1579799394.213,237209
1579799404.212,237210
1579799414.212,237210
1579799424.213,237210
1579799434.212,237211
