epoch,value
1580239347.431,0
1580239357.431,0
1580239367.431,0
1580239377.431,0
1580239387.431,0
1580239397.431,0
1580239407.431,0
1580239417.437,0
1580239427.431,0
1580239437.431,0
1580239447.437,0
1580239457.431,0
1580239467.431,0
1580239477.431,0
1580239487.431,0
1580239497.431,0
1580239507.431,0
1580239517.431,0
1580239527.431,0
1580239537.431,0
1580239547.431,0
1580239557.431,0
1580239567.431,0
1580239577.431,0
1580239587.431,0
1580239597.431,0
1580239607.431,0
1580239617.431,0
1580239627.431,0
1580239637.431,0
1580239647.431,0
1580239657.431,0
1580239667.431,0
1580239677.431,0
1580239687.431,0
1580239697.431,0
1580239707.431,0
1580239717.431,0
1580239727.431,0
1580239737.431,0
1580239747.431,0
1580239757.431,0
1580239767.431,0
1580239777.431,0
1580239787.431,0
1580239797.431,0
1580239807.431,0
1580239817.431,0
1580239827.431,0
1580239837.431,0
1580239847.431,0
1580239857.431,0
1580239867.431,0
1580239877.431,0
1580239887.431,0
1580239897.431,0
1580239907.431,0
1580239917.431,0
1580239927.431,0
1580239937.431,0
1580239947.431,0
1580239957.431,0
1580239967.431,0
1580239977.431,0
1580239987.431,0
1580239997.431,0
1580240007.431,0
1580240017.431,0
1580240027.431,0
1580240037.431,0
1580240047.431,1
1580240057.431,1
1580240067.431,1
1580240077.431,1
1580240087.431,1
1580240097.431,1
1580240107.431,1
1580240117.431,1
1580240127.431,1
1580240137.431,1
1580240147.431,1
1580240157.431,1
1580240167.431,1
1580240177.431,1
1580240187.431,1
1580240197.431,1
1580240207.431,1
1580240217.431,1
1580240227.431,1
1580240237.431,1
1580240247.431,1
1580240257.431,1
1580240267.431,1
1580240277.431,1
1580240287.431,1
1580240297.431,1
1580240307.431,1
1580240317.431,1
1580240327.431,1
1580240337.431,1
1580240347.431,1
1580240357.431,1
1580240367.431,1
1580240377.431,1
1580240387.431,1
1580240397.431,1
1580240407.431,1
1580240417.431,1
1580240427.431,1
1580240437.431,1
1580240447.431,1
1580240457.431,1
1580240467.431,1
1580240477.431,1
1580240487.431,1
1580240497.431,1
1580240507.431,1
1580240517.431,1
1580240527.431,1
1580240537.431,1
1580240547.431,1
1580240557.431,1
1580240567.431,1
1580240577.440,1
1580240587.431,1
1580240597.437,1
1580240607.431,1
1580240617.431,1
1580240627.431,1
1580240637.431,1
1580240647.431,1
1580240657.431,1
1580240667.431,1
1580240677.431,1
1580240687.433,1
1580240697.431,2
1580240707.431,2
1580240717.431,2
1580240727.431,2
1580240737.431,2
1580240747.431,2
1580240757.431,2
1580240767.431,2
1580240777.431,2
1580240787.431,2
1580240797.431,2
1580240807.431,2
1580240817.431,2
1580240827.431,2
1580240837.431,2
1580240847.431,2
1580240857.431,2
1580240867.431,2
1580240877.431,2
1580240887.431,2
1580240897.431,2
1580240907.431,2
1580240917.431,2
1580240927.431,2
1580240937.431,2
1580240947.431,2
1580240957.431,2
1580240967.431,2
1580240977.431,2
1580240987.431,2
1580240997.431,2
1580241007.433,2
1580241017.431,2
1580241027.431,2
1580241037.431,2
1580241047.431,2
1580241057.431,2
1580241067.431,2
1580241077.431,2
1580241087.431,2
1580241097.431,2
1580241107.431,2
1580241117.431,2
1580241127.431,2
1580241137.431,2
1580241147.431,2
1580241157.431,2
1580241167.431,3
1580241177.431,3
1580241187.431,3
1580241197.431,3
1580241207.431,3
1580241217.437,3
1580241227.431,3
1580241237.431,3
1580241247.431,3
1580241257.431,3
1580241267.431,3
1580241277.431,3
1580241287.431,3
1580241297.431,3
1580241307.431,3
1580241317.431,3
1580241327.431,3
1580241337.431,3
1580241347.431,3
1580241357.431,3
1580241377.431,3
1580241387.431,3
1580241397.431,3
1580241407.431,3
1580241417.431,3
1580241427.431,3
1580241437.431,3
1580241447.431,3
1580241457.431,3
1580241467.431,3
1580241477.431,3
1580241487.431,3
1580241497.431,3
1580241507.431,3
1580241517.431,3
1580241527.431,3
1580241537.431,3
1580241547.431,3
1580241557.431,3
1580241567.431,3
1580241577.431,3
1580241587.431,3
1580241597.431,3
1580241607.431,3
1580241617.431,3
1580241627.431,3
1580241637.431,3
1580241647.431,3
1580241657.431,3
1580241667.431,3
1580241677.431,3
1580241687.431,3
1580241697.431,3
1580241707.431,3
1580241717.431,3
1580241727.431,3
1580241737.431,3
1580241747.431,3
1580241757.431,3
1580241767.431,3
1580241777.431,3
1580241787.431,3
1580241797.431,3
1580241807.431,3
1580241817.431,3
1580241827.431,3
1580241837.431,3
1580241847.431,3
1580241857.431,3
1580241867.431,3
1580241877.431,3
1580241887.431,3
1580241897.431,3
1580241907.431,3
1580241917.431,3
1580241927.431,3
1580241937.431,3
1580241947.431,3
1580241957.431,3
1580241967.431,3
1580241977.431,3
1580241987.431,3
1580241997.431,3
1580242007.436,3
1580242017.431,4
1580242027.431,4
1580242037.431,4
1580242047.431,4
1580242057.431,4
1580242067.431,4
1580242077.431,4
