epoch,value
1580586577.604,418103
1580586587.587,418105
1580586597.586,418106
1580586607.585,418106
1580586617.585,418106
1580586627.585,418106
1580586637.585,418107
1580586647.587,418107
1580586657.585,418107
1580586667.585,418107
1580586677.585,418108
1580586687.585,418108
1580586697.585,418108
1580586707.586,418108
1580586717.585,418108
1580586727.585,418108
1580586737.585,418108
1580586747.585,418109
1580586757.585,418109
1580586767.585,418109
1580586777.585,418109
1580586787.585,418110
1580586797.585,418111
1580586807.585,418111
1580586817.585,418111
1580586827.585,418111
1580586837.585,418111
1580586847.585,418111
1580586857.585,418113
1580586867.589,418113
1580586877.585,418114
1580586887.585,418116
1580586897.585,418116
1580586907.585,418116
1580586917.585,418116
1580586927.585,418117
1580586937.585,418117
1580586947.585,418117
1580586957.585,418117
1580586967.587,418118
1580586977.585,418119
1580586987.585,418119
1580586997.586,418119
1580587007.585,418120
1580587017.585,418120
1580587027.585,418120
1580587037.585,418120
1580587047.585,418121
1580587057.585,418121
1580587067.587,418122
1580587077.585,418122
1580587087.585,418123
1580587097.585,418124
1580587107.585,418125
1580587117.585,418125
1580587127.585,418126
1580587137.585,418128
1580587147.585,418128
1580587157.585,418128
1580587167.585,418129
1580587177.586,418130
1580587187.585,418130
1580587197.585,418132
1580587207.585,418134
1580587217.587,418135
1580587227.585,418135
1580587237.588,418135
1580587247.585,418135
1580587257.585,418136
1580587267.585,418138
1580587277.585,418138
1580587287.585,418139
1580587297.585,418140
1580587307.585,418140
1580587317.585,418141
1580587327.585,418141
1580587337.585,418142
1580587347.585,418143
1580587357.584,418143
1580587367.585,418143
1580587377.585,418143
1580587387.585,418143
1580587397.585,418144
1580587407.585,418144
1580587417.585,418145
1580587427.585,418145
1580587437.585,418145
1580587447.585,418146
1580587457.585,418146
1580587467.586,418146
1580587477.586,418146
1580587487.585,418146
1580587497.585,418146
1580587507.585,418146
1580587517.585,418148
1580587527.585,418149
1580587537.585,418150
1580587547.585,418150
1580587557.585,418150
1580587567.587,418150
1580587577.585,418150
1580587587.585,418150
1580587597.585,418151
1580587607.586,418152
1580587617.585,418153
1580587627.585,418154
1580587637.585,418155
1580587647.585,418155
1580587657.585,418157
1580587667.585,418158
1580587677.585,418160
1580587687.585,418160
1580587697.585,418160
1580587707.585,418161
1580587717.585,418162
1580587727.585,418162
1580587737.585,418163
1580587747.585,418163
1580587757.585,418164
1580587767.585,418164
1580587777.585,418165
1580587787.585,418166
1580587797.585,418168
1580587807.585,418168
1580587817.585,418170
1580587827.585,418172
1580587837.585,418173
1580587847.585,418173
1580587857.585,418174
1580587867.585,418176
1580587877.585,418176
1580587887.585,418177
1580587897.585,418177
1580587907.585,418178
1580587917.585,418179
1580587927.585,418180
1580587937.585,418180
1580587947.585,418180
1580587957.585,418181
1580587967.585,418181
1580587977.585,418182
1580587987.585,418183
1580587997.585,418183
1580588007.585,418184
1580588017.587,418186
1580588027.585,418188
1580588037.585,418188
1580588047.585,418188
1580588057.585,418189
1580588067.585,418190
1580588077.585,418191
1580588087.586,418192
1580588097.585,418192
1580588107.585,418192
1580588117.585,418194
1580588127.586,418194
1580588137.587,418194
1580588147.585,418196
1580588157.585,418197
1580588167.585,418198
1580588177.585,418200
1580588187.585,418202
1580588197.587,418202
1580588207.586,418203
1580588217.585,418203
1580588227.585,418203
1580588237.585,418205
1580588247.586,418205
1580588257.585,418206
1580588267.588,418208
1580588277.585,418209
1580588287.585,418209
1580588297.585,418209
1580588307.585,418210
1580588317.585,418211
1580588327.585,418211
1580588337.585,418214
1580588347.586,418216
1580588357.585,418216
1580588367.585,418216
1580588377.585,418216
1580588387.585,418216
1580588397.585,418219
1580588407.585,418220
1580588417.585,418220
1580588427.585,418220
1580588437.585,418221
1580588447.585,418222
1580588457.585,418222
1580588467.587,418223
1580588477.585,418226
1580588487.585,418226
1580588497.586,418226
1580588507.585,418226
1580588517.585,418227
1580588527.585,418228
1580588537.585,418228
1580588547.589,418229
1580588557.587,418230
1580588567.585,418230
1580588577.585,418231
1580588587.586,418231
1580588597.585,418232
1580588607.585,418233
1580588617.585,418234
1580588627.585,418234
1580588637.585,418234
1580588647.585,418235
1580588657.585,418235
1580588667.585,418235
1580588677.585,418236
1580588687.585,418236
1580588697.585,418236
1580588707.585,418236
1580588717.586,418237
1580588727.585,418238
1580588737.585,418238
1580588747.585,418238
1580588757.585,418238
1580588767.587,418238
1580588777.586,418238
1580588787.585,418238
1580588797.587,418240
1580588807.585,418240
1580588817.585,418241
1580588827.586,418242
1580588837.586,418243
1580588847.585,418243
1580588857.586,418245
1580588867.585,418245
1580588877.585,418248
1580588887.586,418249
1580588897.585,418249
1580588907.585,418249
1580588917.585,418249
1580588927.585,418249
1580588937.586,418249
1580588947.585,418250
1580588957.585,418250
1580588967.585,418251
1580588977.585,418252
1580588987.585,418253
1580588997.586,418253
1580589007.585,418254
1580589017.585,418255
1580589027.585,418256
1580589037.585,418256
1580589047.585,418256
1580589057.585,418256
1580589067.585,418257
1580589077.585,418259
1580589087.585,418259
1580589097.585,418259
1580589107.585,418260
1580589117.586,418260
1580589127.585,418261
1580589137.585,418263
1580589147.585,418263
1580589157.587,418264
1580589167.585,418264
1580589177.585,418264
1580589187.585,418264
1580589197.585,418266
1580589207.585,418266
1580589217.585,418267
1580589227.586,418267
1580589237.585,418268
1580589247.585,418269
1580589257.585,418269
1580589267.585,418269
1580589277.585,418270
1580589287.585,418271
1580589297.586,418272
1580589307.585,418272
1580589317.585,418272
1580589327.585,418274
1580589337.585,418274
1580589347.585,418274
1580589357.585,418274
1580589367.585,418275
1580589377.586,418275
1580589387.585,418276
1580589397.587,418276
1580589407.585,418276
1580589417.585,418276
1580589427.585,418276
1580589437.585,418276
1580589447.585,418276
1580589457.585,418276
1580589467.585,418276
1580589477.585,418276
1580589487.585,418276
1580589497.585,418276
1580589507.585,418276
1580589517.585,418276
1580589527.585,418277
1580589537.585,418278
1580589547.585,418278
1580589557.585,418278
1580589567.585,418280
1580589577.586,418281
1580589587.585,418281
1580589597.585,418282
1580589607.585,418282
1580589617.585,418282
1580589627.585,418283
1580589637.585,418283
1580589647.585,418283
1580589657.585,418284
1580589667.585,418285
1580589677.585,418285
1580589687.585,418286
1580589697.585,418286
1580589707.585,418286
1580589717.585,418286
1580589727.585,418287
1580589737.586,418288
1580589747.585,418288
1580589757.585,418289
1580589767.586,418289
1580589777.585,418290
1580589787.585,418291
1580589797.585,418291
1580589807.585,418292
1580589817.585,418293
1580589827.585,418294
1580589837.585,418294
1580589847.585,418294
1580589857.585,418294
1580589867.585,418295
1580589877.585,418295
1580589887.585,418295
1580589897.585,418296
1580589907.585,418296
1580589917.585,418298
1580589927.585,418298
1580589937.585,418298
1580589947.585,418298
1580589957.587,418298
1580589967.587,418300
1580589977.585,418300
1580589987.585,418301
1580589997.585,418301
1580590007.585,418301
1580590017.585,418301
1580590027.585,418301
1580590037.585,418303
1580590047.585,418303
1580590057.586,418303
1580590067.585,418303
1580590077.585,418303
1580590087.586,418303
1580590097.585,418304
1580590107.585,418304
1580590117.585,418305
1580590127.585,418306
1580590137.585,418307
1580590147.585,418307
1580590157.585,418309
1580590167.585,418310
1580590177.585,418310
1580590187.585,418312
1580590197.585,418313
1580590207.585,418313
1580590217.586,418313
1580590227.585,418314
1580590237.585,418314
1580590247.585,418314
1580590257.585,418315
1580590267.585,418315
1580590277.585,418316
1580590287.585,418317
1580590297.585,418317
1580590307.585,418318
1580590317.585,418318
1580590327.585,418318
1580590337.585,418319
1580590347.585,418320
1580590357.585,418320
1580590367.585,418320
1580590377.585,418320
1580590387.585,418322
1580590397.585,418322
1580590407.585,418322
1580590417.585,418322
1580590427.585,418322
1580590437.585,418323
1580590447.585,418323
1580590457.586,418323
1580590467.585,418324
1580590477.585,418325
1580590487.585,418325
1580590497.585,418328
1580590507.585,418328
1580590517.585,418328
1580590527.588,418329
1580590537.585,418330
1580590547.585,418330
1580590557.585,418331
1580590567.585,418332
1580590577.587,418332
1580590587.585,418333
1580590597.585,418333
1580590607.585,418333
1580590617.586,418333
1580590627.588,418335
1580590637.585,418335
1580590647.586,418335
1580590657.585,418335
1580590667.585,418336
1580590677.585,418336
1580590687.585,418337
1580590697.585,418338
1580590707.585,418339
1580590717.585,418340
1580590727.585,418340
1580590737.585,418342
1580590747.585,418343
1580590757.585,418345
1580590767.585,418346
1580590777.585,418346
1580590787.585,418347
1580590797.585,418348
1580590807.586,418348
1580590817.588,418349
1580590827.586,418350
1580590837.586,418350
1580590847.585,418350
1580590857.585,418350
1580590867.585,418351
1580590877.585,418351
1580590887.585,418351
1580590897.585,418352
1580590907.585,418352
1580590917.585,418354
1580590927.585,418355
1580590937.585,418355
1580590947.585,418356
1580590957.585,418356
1580590967.585,418358
1580590977.585,418358
1580590987.585,418359
1580590997.585,418360
1580591007.585,418360
1580591017.586,418361
1580591027.586,418362
1580591037.585,418362
1580591047.585,418363
1580591057.585,418364
1580591067.585,418364
1580591077.585,418365
1580591087.585,418365
1580591097.585,418366
1580591107.585,418366
1580591117.587,418366
1580591127.585,418366
1580591137.585,418366
1580591147.585,418366
1580591157.585,418366
1580591167.585,418366
1580591177.585,418366
1580591187.585,418367
1580591197.585,418367
1580591207.585,418368
1580591217.585,418369
1580591227.585,418370
1580591237.585,418370
1580591247.586,418370
1580591257.585,418370
1580591267.585,418372
1580591277.585,418373
1580591287.585,418373
1580591297.585,418374
1580591307.586,418375
1580591317.585,418375
1580591327.585,418376
1580591337.585,418378
1580591347.586,418378
1580591357.585,418378
1580591367.585,418379
1580591377.585,418379
1580591387.585,418379
1580591397.585,418379
1580591407.585,418382
1580591417.585,418382
1580591427.585,418382
1580591437.585,418382
1580591447.586,418384
1580591457.585,418384
1580591467.585,418384
1580591477.585,418384
1580591487.585,418386
1580591497.585,418386
1580591507.585,418387
1580591517.585,418389
1580591527.585,418390
1580591537.589,418390
1580591547.585,418391
1580591557.585,418391
1580591567.585,418391
1580591577.587,418391
1580591587.585,418392
1580591597.585,418392
1580591607.585,418393
1580591617.585,418393
1580591627.585,418393
1580591637.585,418394
1580591647.585,418394
1580591657.585,418394
1580591667.586,418396
1580591677.585,418396
1580591687.585,418396
1580591697.585,418396
1580591707.585,418396
1580591717.585,418396
1580591727.585,418396
1580591737.585,418398
1580591747.585,418398
1580591757.585,418400
1580591767.585,418402
1580591777.585,418402
1580591787.585,418403
1580591797.585,418403
1580591807.585,418404
1580591817.588,418405
1580591827.585,418407
1580591837.585,418408
1580591847.586,418408
1580591857.585,418408
1580591867.585,418408
1580591877.585,418408
1580591887.586,418411
1580591897.585,418411
1580591907.585,418412
1580591917.585,418412
1580591927.585,418412
1580591937.585,418414
1580591947.585,418414
1580591957.587,418414
1580591967.585,418414
1580591977.586,418414
1580591987.586,418414
1580591997.586,418416
1580592007.587,418416
1580592017.585,418417
1580592027.585,418419
1580592037.585,418419
1580592047.586,418419
1580592057.586,418420
1580592067.585,418422
1580592077.585,418423
1580592087.585,418423
1580592097.585,418423
1580592107.586,418423
1580592117.585,418424
1580592127.585,418424
1580592137.585,418424
1580592147.585,418424
1580592157.586,418424
1580592167.585,418426
1580592177.585,418427
1580592187.585,418427
1580592197.585,418427
1580592207.585,418427
1580592217.585,418427
1580592227.586,418427
1580592237.585,418428
1580592247.585,418429
1580592257.585,418429
1580592267.585,418431
1580592277.585,418431
1580592287.585,418432
1580592297.585,418434
1580592307.585,418435
1580592317.585,418435
1580592327.585,418435
1580592337.585,418435
1580592347.585,418436
1580592357.585,418437
1580592367.585,418438
1580592377.585,418438
1580592387.585,418438
1580592397.585,418438
1580592407.585,418440
1580592417.585,418440
1580592427.585,418441
1580592437.585,418441
1580592447.585,418441
1580592457.585,418441
1580592467.585,418441
1580592477.586,418442
1580592487.585,418443
1580592497.585,418444
1580592507.586,418445
1580592517.585,418445
1580592527.585,418445
1580592537.586,418445
1580592547.585,418446
1580592557.585,418446
1580592567.585,418446
1580592577.585,418447
1580592587.585,418448
1580592597.585,418448
1580592607.585,418449
1580592617.585,418449
1580592627.585,418450
1580592637.585,418450
1580592647.585,418450
1580592657.585,418450
1580592667.585,418452
1580592677.585,418452
1580592687.585,418452
1580592697.585,418453
1580592707.585,418454
1580592717.586,418454
1580592727.585,418454
1580592737.585,418454
1580592747.585,418455
1580592757.585,418455
1580592767.586,418455
1580592777.585,418455
1580592787.585,418455
1580592797.585,418457
1580592807.585,418459
1580592817.587,418459
1580592827.585,418459
1580592837.585,418459
1580592847.585,418459
1580592857.585,418459
1580592867.585,418459
1580592877.585,418459
1580592887.585,418459
1580592897.585,418459
1580592907.585,418461
1580592917.585,418461
1580592927.585,418461
1580592937.585,418461
1580592947.585,418461
1580592957.585,418462
1580592967.588,418464
1580592977.585,418466
1580592987.588,418467
1580592997.586,418468
1580593007.585,418468
1580593017.585,418470
1580593027.585,418470
1580593037.585,418470
1580593047.585,418472
1580593057.585,418473
1580593067.585,418474
1580593077.585,418474
1580593087.585,418475
1580593097.587,418475
1580593107.585,418475
1580593117.585,418476
1580593127.585,418476
1580593137.585,418476
1580593147.585,418476
1580593157.585,418476
1580593167.586,418476
1580593177.586,418476
1580593187.585,418476
1580593197.585,418477
1580593207.585,418478
1580593217.585,418478
1580593227.585,418478
1580593237.585,418478
1580593247.585,418478
1580593257.585,418480
1580593267.585,418480
1580593277.585,418481
1580593287.586,418482
1580593297.585,418482
1580593307.585,418482
1580593317.585,418482
1580593327.585,418482
1580593337.585,418482
1580593347.585,418482
1580593357.585,418482
1580593367.585,418482
1580593377.585,418482
1580593387.585,418482
1580593397.585,418482
1580593407.585,418483
1580593417.585,418483
1580593427.587,418483
1580593437.586,418483
1580593447.585,418484
1580593457.585,418484
1580593467.585,418484
1580593477.585,418484
1580593487.585,418485
1580593497.585,418486
1580593507.586,418486
1580593517.585,418487
1580593527.585,418487
1580593537.585,418487
1580593547.586,418487
1580593557.586,418487
1580593567.585,418487
1580593577.585,418487
1580593587.585,418488
1580593597.585,418488
1580593607.585,418490
1580593617.588,418491
1580593627.586,418492
1580593637.585,418493
1580593647.585,418493
1580593657.585,418494
1580593667.585,418494
1580593677.585,418494
1580593687.586,418494
1580593697.586,418494
1580593707.585,418495
1580593717.586,418495
1580593727.585,418495
1580593737.585,418495
1580593747.585,418496
1580593757.585,418496
1580593767.585,418496
1580593777.585,418496
1580593787.585,418496
1580593797.585,418497
1580593807.585,418498
1580593817.585,418499
1580593827.585,418500
1580593837.586,418502
1580593847.585,418502
1580593857.585,418504
1580593867.586,418505
1580593877.586,418505
1580593887.585,418506
1580593897.585,418507
1580593907.585,418507
1580593917.585,418507
1580593927.585,418508
1580593937.585,418508
1580593947.587,418509
1580593957.585,418510
1580593967.585,418510
1580593977.585,418510
1580593987.585,418510
1580593997.585,418511
1580594007.585,418512
1580594017.585,418513
1580594027.585,418514
1580594037.585,418514
1580594047.585,418516
1580594057.588,418516
1580594067.585,418517
1580594077.585,418518
1580594087.585,418518
1580594097.585,418518
1580594107.585,418518
1580594117.585,418518
1580594127.585,418518
1580594137.585,418518
1580594147.585,418520
1580594157.585,418523
1580594167.585,418523
1580594177.585,418523
1580594187.585,418523
1580594197.585,418523
1580594207.585,418523
1580594217.587,418523
1580594227.585,418523
1580594237.585,418523
1580594247.586,418524
1580594257.585,418524
1580594267.585,418524
1580594277.585,418525
1580594287.585,418525
1580594297.585,418527
1580594307.585,418528
1580594317.586,418528
1580594327.585,418530
1580594337.585,418531
1580594347.585,418532
1580594357.585,418532
1580594367.585,418532
1580594377.585,418532
1580594387.585,418534
1580594397.585,418534
1580594407.585,418534
1580594417.587,418534
1580594427.586,418534
1580594437.585,418534
1580594447.586,418536
1580594457.585,418536
1580594467.585,418536
1580594477.585,418537
1580594487.585,418539
1580594497.585,418539
1580594507.585,418541
1580594517.589,418542
1580594527.586,418542
1580594537.585,418542
1580594547.585,418544
1580594557.585,418544
1580594567.585,418544
1580594577.585,418544
1580594587.587,418545
1580594597.585,418545
1580594607.585,418546
1580594617.585,418546
1580594627.585,418546
1580594637.585,418546
1580594647.585,418546
1580594657.585,418547
1580594667.586,418548
1580594677.587,418549
1580594687.586,418550
1580594697.585,418550
1580594707.585,418550
1580594717.585,418550
1580594727.585,418550
