epoch,value
1580215433.748,0
1580215443.748,0
1580215453.748,0
1580215463.748,0
1580215473.748,0
1580215483.748,0
1580215493.749,0
1580215503.748,0
1580215513.748,0
1580215523.748,0
1580215533.748,0
1580215543.748,0
1580215553.748,0
1580215563.749,0
1580215573.748,0
1580215583.748,0
1580215593.748,0
1580215603.748,0
1580215613.748,0
1580215623.748,0
1580215633.748,0
1580215643.748,0
1580215653.748,0
1580215663.748,0
1580215673.748,0
1580215683.748,0
1580215693.748,0
1580215703.748,0
1580215713.748,0
1580215723.748,0
1580215733.748,0
1580215743.748,0
1580215753.749,0
1580215763.748,0
1580215773.748,0
1580215783.748,0
1580215793.748,0
1580215803.748,0
1580215813.748,0
1580215823.748,0
1580215833.748,0
1580215843.748,1
1580215853.748,1
1580215863.748,1
1580215873.748,1
1580215883.748,1
1580215893.748,1
1580215903.748,1
1580215913.748,1
1580215923.748,1
1580215933.748,1
1580215943.748,1
1580215953.748,1
1580215963.749,1
1580215973.748,1
1580215983.750,1
1580215993.748,1
1580216003.749,1
1580216013.748,1
1580216023.748,1
1580216033.748,1
1580216043.748,1
1580216053.748,1
1580216063.748,1
1580216073.748,1
1580216083.748,1
1580216093.749,1
1580216103.748,1
1580216113.748,1
1580216123.749,1
1580216133.748,1
1580216143.748,1
1580216153.748,1
1580216163.748,1
1580216173.748,1
1580216183.748,1
1580216193.748,1
1580216203.748,1
1580216213.748,1
1580216223.748,1
1580216233.748,1
1580216243.748,1
1580216253.748,1
1580216263.748,1
1580216273.748,1
1580216283.748,1
1580216293.748,1
1580216303.748,1
1580216313.748,1
1580216323.749,1
1580216333.748,1
1580216343.748,1
1580216353.748,1
1580216363.748,1
1580216373.748,1
1580216383.748,1
1580216393.749,2
1580216403.748,2
1580216413.748,2
1580216423.749,2
1580216433.749,2
1580216443.748,2
1580216453.748,2
1580216463.748,2
1580216473.748,2
1580216483.748,2
1580216493.748,2
1580216503.748,2
1580216513.748,2
1580216523.748,2
1580216533.748,2
1580216543.748,2
1580216553.748,2
1580216563.748,2
1580216573.748,2
1580216583.748,2
1580216593.748,2
1580216603.748,2
1580216613.748,2
1580216623.748,2
1580216633.748,2
1580216643.748,2
1580216653.748,2
1580216663.748,2
1580216673.749,2
1580216683.748,2
1580216693.749,2
1580216703.748,2
1580216713.748,2
1580216723.748,2
1580216733.748,2
1580216743.748,2
1580216753.748,2
1580216763.748,2
1580216773.748,2
1580216783.748,2
1580216793.748,3
1580216803.748,3
1580216813.749,3
1580216823.749,3
1580216833.748,3
1580216843.748,3
1580216853.748,3
1580216863.748,3
1580216873.748,3
1580216883.748,3
1580216893.749,3
1580216903.748,3
1580216913.748,3
1580216923.748,3
1580216933.748,3
1580216943.748,3
1580216953.748,3
1580216963.748,3
1580216973.748,3
1580216983.748,3
1580216993.748,3
1580217003.749,3
1580217013.748,3
1580217023.748,3
1580217033.748,3
1580217043.748,3
1580217053.748,3
1580217063.748,3
1580217073.748,3
1580217083.748,3
1580217093.749,3
1580217103.748,3
1580217113.749,3
1580217123.748,3
1580217133.748,3
1580217143.748,3
1580217153.749,3
1580217163.748,3
1580217173.749,3
1580217183.748,3
1580217193.748,3
1580217203.748,4
1580217213.748,4
1580217223.748,4
1580217233.749,4
1580217243.748,4
1580217253.749,4
1580217263.748,4
1580217273.748,4
1580217283.748,4
1580217293.748,4
1580217303.748,4
1580217313.748,4
1580217323.749,4
1580217333.750,4
1580217343.749,4
1580217353.748,4
1580217363.748,4
1580217373.748,4
1580217383.749,4
1580217393.748,4
1580217403.748,4
1580217413.748,4
1580217423.748,4
1580217433.748,4
1580217443.748,4
1580217453.748,4
1580217463.748,4
1580217473.748,4
1580217483.748,4
1580217493.749,4
1580217503.749,4
1580217513.748,4
1580217523.748,4
1580217533.749,4
1580217543.748,4
1580217553.748,4
1580217563.749,4
1580217573.748,4
1580217583.748,4
1580217593.748,4
1580217603.748,4
1580217613.748,4
1580217623.748,4
1580217633.748,4
1580217643.748,4
1580217653.748,4
1580217663.749,4
1580217673.748,4
1580217683.748,4
1580217693.748,4
1580217703.748,4
1580217713.750,4
1580217723.748,4
1580217733.748,4
1580217743.748,4
1580217753.748,4
1580217763.749,4
1580217773.748,4
1580217783.749,4
1580217793.748,4
1580217803.749,4
1580217813.748,4
1580217823.748,4
1580217833.748,4
1580217843.748,4
1580217853.748,4
1580217863.748,4
1580217873.748,4
1580217883.748,4
1580217893.749,4
1580217903.749,4
1580217913.748,4
1580217923.749,5
1580217933.748,5
1580217943.748,5
1580217953.748,5
1580217963.748,5
1580217973.748,5
1580217983.749,5
1580217993.748,5
1580218003.748,5
1580218013.748,5
1580218023.748,5
1580218033.749,5
1580218043.748,5
1580218053.748,5
1580218063.748,5
1580218073.749,5
1580218083.748,5
1580218093.748,5
1580218103.748,5
1580218113.748,5
1580218123.748,5
1580218133.749,5
1580218143.748,5
1580218153.748,5
1580218163.749,5
1580218173.748,5
