epoch,value
1579927269.495,248916
1579927279.470,248917
1579927289.470,248917
1579927299.470,248917
1579927309.470,248918
1579927319.470,248918
1579927329.470,248918
1579927339.470,248920
1579927349.470,248920
1579927359.470,248921
1579927369.470,248921
1579927379.470,248923
1579927389.470,248923
1579927399.470,248924
1579927409.470,248924
1579927419.470,248925
1579927429.470,248926
1579927439.470,248927
1579927449.470,248928
1579927459.470,248930
1579927469.470,248930
1579927479.470,248930
1579927489.470,248930
1579927499.470,248930
1579927509.470,248930
1579927519.470,248930
1579927529.470,248931
1579927539.470,248931
1579927549.470,248931
1579927559.471,248931
1579927569.470,248932
1579927579.470,248932
1579927589.470,248932
1579927599.470,248932
1579927609.470,248933
1579927619.470,248934
1579927629.470,248935
1579927639.470,248936
1579927649.471,248937
1579927659.470,248937
1579927669.470,248938
1579927679.470,248938
1579927689.470,248939
1579927699.470,248940
1579927709.470,248940
1579927719.471,248941
1579927729.470,248942
1579927739.470,248943
1579927749.470,248944
1579927759.471,248946
1579927769.470,248946
1579927779.470,248947
1579927789.470,248948
1579927799.470,248948
1579927809.470,248949
1579927819.470,248949
1579927829.470,248950
1579927839.471,248950
1579927849.470,248950
1579927859.470,248950
1579927869.470,248951
1579927879.470,248954
1579927889.470,248954
1579927899.470,248954
1579927909.470,248954
1579927919.472,248955
1579927929.471,248956
1579927939.471,248956
1579927949.470,248956
1579927959.470,248956
1579927969.471,248957
1579927979.470,248957
1579927989.470,248959
1579927999.470,248960
1579928009.470,248961
1579928019.470,248963
1579928029.472,248964
1579928039.470,248965
1579928049.470,248966
1579928059.470,248967
1579928069.472,248967
1579928079.470,248969
1579928089.470,248970
1579928099.470,248970
1579928109.470,248971
1579928119.470,248971
1579928129.470,248972
1579928139.470,248973
1579928149.470,248973
1579928159.470,248973
1579928169.470,248974
1579928179.472,248974
1579928189.470,248974
1579928199.470,248975
1579928209.470,248976
1579928219.470,248977
1579928229.473,248978
1579928239.470,248979
1579928249.471,248979
1579928259.470,248979
1579928269.471,248980
1579928279.471,248980
1579928289.470,248982
1579928299.470,248983
1579928309.470,248985
1579928319.470,248986
1579928329.470,248987
1579928339.470,248987
1579928349.470,248987
1579928359.470,248988
1579928369.470,248988
1579928379.470,248988
1579928389.470,248990
1579928399.470,248992
1579928409.470,248993
1579928419.470,248994
1579928429.470,248994
1579928439.470,248995
1579928449.470,248996
1579928459.470,248996
1579928469.470,248996
1579928479.470,248997
1579928489.470,248997
1579928499.470,248997
1579928509.470,248998
1579928519.470,248998
1579928529.470,248998
1579928539.470,248999
1579928549.470,249000
1579928559.470,249000
1579928569.470,249000
1579928579.470,249001
1579928589.470,249001
1579928599.471,249002
1579928609.470,249002
1579928619.472,249003
1579928629.470,249004
1579928639.470,249004
1579928649.470,249005
1579928659.470,249005
1579928669.470,249007
1579928679.470,249008
1579928689.470,249008
1579928699.470,249008
1579928709.470,249009
1579928719.470,249009
1579928729.470,249010
1579928739.470,249011
1579928749.470,249012
1579928759.470,249014
1579928769.470,249015
1579928779.470,249015
1579928789.473,249015
1579928799.470,249017
1579928809.470,249017
1579928819.470,249018
1579928829.470,249018
1579928839.470,249018
1579928849.470,249020
1579928859.470,249021
1579928869.470,249022
1579928879.470,249024
1579928889.470,249025
1579928899.470,249025
1579928909.470,249025
1579928919.470,249025
1579928929.470,249026
1579928939.470,249026
1579928949.470,249026
1579928959.470,249026
1579928969.470,249026
1579928979.470,249026
1579928989.470,249027
1579928999.470,249028
1579929009.470,249028
1579929019.470,249029
1579929029.470,249030
1579929039.473,249031
1579929049.470,249031
1579929059.470,249031
1579929069.470,249032
1579929079.470,249033
1579929089.470,249034
1579929099.470,249035
1579929109.470,249035
1579929119.470,249035
1579929129.471,249036
1579929139.470,249036
1579929149.471,249036
1579929159.470,249036
1579929169.470,249037
1579929179.470,249037
1579929189.470,249038
1579929199.470,249038
1579929209.470,249038
1579929219.470,249038
1579929229.470,249038
1579929239.470,249038
1579929249.470,249039
1579929259.473,249040
1579929269.472,249040
1579929279.470,249041
1579929289.470,249042
1579929299.473,249042
1579929309.470,249042
1579929319.470,249042
1579929329.470,249042
1579929339.470,249042
1579929349.470,249042
1579929359.470,249042
1579929369.470,249042
1579929379.470,249042
1579929389.470,249043
1579929399.470,249043
1579929409.470,249044
1579929419.471,249045
1579929429.470,249045
1579929439.471,249046
1579929449.470,249047
1579929459.470,249048
1579929469.474,249049
1579929479.470,249050
1579929489.470,249050
1579929499.470,249051
1579929509.471,249051
1579929519.470,249053
1579929529.470,249054
1579929539.473,249054
1579929549.471,249054
1579929559.471,249058
1579929569.470,249058
1579929579.471,249060
1579929589.470,249062
1579929599.470,249063
1579929609.470,249064
1579929619.470,249064
1579929629.470,249066
1579929639.470,249066
1579929649.470,249068
1579929659.470,249068
1579929669.470,249070
1579929679.470,249070
1579929689.470,249070
1579929699.470,249070
1579929709.470,249071
1579929719.470,249071
1579929729.472,249071
1579929739.470,249072
1579929749.470,249072
1579929759.470,249072
1579929769.470,249074
1579929779.470,249074
1579929789.470,249074
1579929799.470,249075
1579929809.470,249077
1579929819.470,249078
1579929829.470,249078
1579929839.470,249079
1579929849.470,249080
1579929859.470,249080
1579929869.473,249080
1579929879.470,249080
1579929889.471,249081
1579929899.470,249081
1579929909.470,249082
1579929919.471,249082
1579929929.471,249083
1579929939.470,249084
1579929949.470,249084
1579929959.470,249084
1579929969.470,249086
1579929979.470,249087
1579929989.470,249087
1579929999.470,249089
1579930009.470,249090
1579930019.470,249090
1579930029.470,249091
