epoch,value
1579801454.094,0
1579801464.094,0
1579801474.094,0
1579801484.094,0
1579801494.094,0
1579801504.094,0
1579801514.094,0
1579801524.094,0
1579801534.094,0
1579801544.094,0
1579801554.094,0
1579801564.094,1
1579801574.094,1
1579801584.094,1
1579801594.094,1
1579801604.094,1
1579801614.094,1
1579801624.094,1
1579801634.094,1
1579801644.094,1
1579801654.094,1
1579801664.094,2
1579801674.094,2
1579801684.094,2
1579801694.094,2
1579801704.094,2
1579801714.094,2
1579801724.094,2
1579801734.094,2
1579801744.094,2
1579801754.098,2
1579801764.094,2
1579801774.094,2
1579801784.094,2
1579801794.094,2
1579801804.096,2
1579801814.094,3
1579801824.094,3
1579801834.094,3
1579801844.094,3
1579801854.094,3
1579801864.094,3
1579801874.094,3
1579801884.094,3
1579801894.094,3
1579801904.094,3
1579801914.094,3
1579801924.094,3
1579801934.094,4
1579801944.094,4
1579801954.094,4
1579801964.094,4
1579801974.094,4
1579801984.094,4
1579801994.094,4
1579802004.094,4
1579802014.094,4
1579802024.094,4
1579802034.094,4
1579802044.094,4
1579802054.097,4
1579802064.094,4
1579802074.094,4
1579802084.094,4
1579802094.094,4
1579802104.094,4
1579802114.094,4
1579802124.094,4
1579802134.094,4
1579802144.094,4
1579802154.094,4
1579802164.094,4
1579802174.094,4
1579802184.094,5
1579802194.094,5
1579802204.094,5
1579802214.094,5
1579802224.094,5
1579802234.094,5
1579802244.094,5
1579802254.094,5
1579802264.094,5
1579802274.094,5
1579802284.096,5
1579802294.094,5
1579802304.094,5
1579802314.094,5
1579802324.095,5
1579802334.094,5
1579802344.094,5
1579802354.094,5
1579802364.098,5
1579802374.094,5
1579802384.094,5
1579802394.094,5
1579802404.094,5
1579802414.094,5
1579802424.094,5
1579802434.094,5
1579802444.094,5
1579802454.094,5
1579802464.094,5
1579802474.094,5
1579802484.094,5
1579802494.094,6
1579802504.094,6
1579802514.094,6
1579802524.094,6
1579802534.094,6
1579802544.094,6
1579802554.094,6
1579802564.098,6
1579802574.094,6
1579802584.094,6
1579802594.094,6
1579802604.094,6
1579802614.094,6
1579802624.094,6
1579802634.094,6
1579802654.094,6
1579802664.095,6
1579802674.094,6
1579802684.094,6
1579802694.094,6
1579802704.094,7
1579802714.094,7
1579802724.094,7
1579802734.094,7
1579802744.094,7
1579802754.094,7
1579802764.094,7
1579802774.094,7
1579802784.094,7
1579802794.094,7
1579802804.094,7
1579802814.094,7
1579802824.094,7
1579802834.094,7
1579802844.094,7
1579802854.094,7
1579802864.094,7
1579802874.094,7
1579802884.094,7
1579802894.094,7
1579802904.094,7
1579802914.094,7
1579802924.094,7
1579802934.094,7
1579802944.094,8
1579802954.094,8
1579802964.094,8
1579802974.094,8
1579802984.094,8
