epoch,value
1579786939.442,0
1579786949.442,0
1579786959.442,0
1579786969.442,2
1579786979.442,9
1579786989.442,11
1579786999.442,19
1579787009.442,27
1579787019.442,29
1579787029.442,51
1579787039.442,51
1579787049.442,61
1579787059.442,63
1579787069.442,64
1579787079.442,73
1579787089.443,86
1579787099.442,86
1579787109.442,95
1579787119.442,105
1579787129.442,106
1579787139.442,111
1579787149.442,111
1579787159.442,117
1579787169.442,136
1579787179.442,138
1579787189.443,139
1579787199.443,146
1579787209.442,148
1579787219.442,150
1579787229.442,163
1579787239.442,165
1579787249.442,184
1579787259.442,189
1579787269.442,189
1579787279.442,189
1579787289.442,189
1579787299.442,190
1579787309.442,190
1579787319.442,190
1579787329.442,190
1579787339.442,190
1579787349.442,190
1579787359.442,190
1579787369.442,190
1579787379.442,190
1579787389.442,190
1579787399.442,190
1579787409.442,190
1579787419.442,190
1579787429.442,190
1579787439.442,190
1579787449.442,190
1579787459.442,190
1579787469.442,190
1579787479.442,190
1579787489.442,190
1579787499.449,190
1579787509.442,190
1579787519.442,190
1579787529.442,190
1579787539.442,190
1579787549.442,190
1579787559.442,190
1579787569.442,190
1579787579.442,190
1579787589.442,190
1579787599.442,190
1579787609.442,190
1579787619.442,190
1579787629.442,190
1579787639.442,190
1579787649.444,190
1579787659.442,190
1579787669.442,190
1579787679.442,190
1579787689.442,190
1579787699.442,190
1579787709.442,190
1579787719.442,191
1579787729.442,191
1579787739.442,191
1579787749.442,191
1579787759.442,191
1579787769.442,191
1579787779.442,191
1579787789.442,191
1579787799.442,191
1579787809.442,191
1579787819.442,191
1579787829.442,191
1579787839.442,191
1579787849.442,191
1579787859.442,191
1579787869.442,191
1579787879.442,191
1579787889.442,191
1579787899.442,191
1579787909.442,191
1579787919.442,191
1579787929.442,191
1579787939.442,191
1579787949.442,191
1579787959.442,191
1579787969.442,191
1579787979.442,191
1579787989.442,191
1579787999.442,191
1579788009.442,191
1579788019.442,191
1579788029.442,191
1579788039.442,191
1579788049.442,191
1579788059.442,191
1579788069.442,191
1579788079.442,191
1579788089.442,191
1579788099.442,191
1579788109.442,191
1579788119.442,191
1579788129.442,191
1579788139.442,192
1579788149.442,192
1579788159.442,192
1579788169.442,192
1579788179.442,192
1579788189.442,192
1579788199.442,192
1579788209.442,192
1579788219.442,192
1579788229.442,192
1579788239.442,192
1579788249.442,192
1579788259.442,192
1579788269.442,192
1579788279.442,192
1579788289.442,192
1579788299.442,192
1579788309.442,192
1579788319.442,192
1579788329.442,192
1579788339.442,192
1579788349.442,192
1579788359.442,192
1579788369.442,192
1579788379.442,192
1579788389.442,192
1579788399.442,192
1579788409.442,192
1579788419.442,192
1579788429.442,192
1579788439.442,192
1579788449.442,192
1579788459.442,192
1579788469.442,193
