epoch,value
1580485179.472,8859
1580485189.452,8859
1580485199.453,8859
1580485209.452,8859
1580485219.451,8859
1580485229.452,8859
1580485239.451,8859
1580485249.453,8859
1580485259.451,8859
1580485269.451,8859
1580485279.451,8859
1580485289.453,8859
1580485299.451,8859
1580485309.452,8859
1580485319.451,8859
1580485329.452,8859
1580485339.452,8859
1580485349.452,8859
1580485359.452,8859
1580485369.452,8859
1580485379.452,8859
1580485389.452,8859
1580485399.452,8859
1580485409.451,8859
1580485419.452,8859
1580485429.452,8859
1580485439.453,8859
1580485449.452,8859
1580485459.452,8859
1580485469.455,8859
1580485479.452,8859
1580485489.451,8859
1580485499.451,8860
1580485509.452,8860
1580485519.451,8860
1580485529.453,8860
1580485539.453,8860
1580485549.451,8860
1580485559.451,8860
1580485569.451,8860
1580485579.452,8860
1580485589.452,8860
1580485599.452,8860
1580485609.451,8860
1580485619.455,8860
1580485629.454,8860
1580485639.451,8860
1580485649.451,8860
1580485659.453,8860
1580485669.452,8860
1580485679.453,8860
1580485689.451,8860
1580485699.453,8860
1580485709.453,8860
1580485719.452,8860
1580485729.452,8860
1580485739.454,8860
1580485749.451,8860
1580485759.451,8860
1580485769.451,8860
1580485779.451,8860
1580485789.451,8860
1580485799.451,8860
1580485809.451,8860
1580485819.453,8860
1580485829.453,8860
1580485839.454,8860
1580485849.452,8860
1580485859.452,8860
1580485869.452,8860
1580485879.451,8860
1580485889.451,8860
1580485899.453,8860
1580485909.453,8860
1580485919.454,8860
1580485929.451,8860
1580485939.452,8860
1580485949.452,8860
1580485959.452,8860
1580485969.454,8860
1580485979.452,8860
1580485989.451,8860
1580485999.451,8860
1580486009.454,8860
1580486019.453,8860
1580486029.451,8860
1580486039.451,8860
1580486049.451,8860
1580486059.452,8860
1580486069.452,8860
1580486079.451,8860
1580486089.452,8860
1580486099.454,8860
1580486109.452,8860
1580486119.452,8860
1580486129.453,8860
1580486139.452,8860
1580486149.451,8860
1580486159.453,8860
1580486169.451,8860
1580486179.452,8860
1580486189.451,8860
1580486199.451,8860
1580486209.452,8860
1580486219.451,8860
1580486229.452,8860
1580486239.452,8860
1580486249.452,8860
1580486259.452,8860
1580486269.451,8860
1580486279.451,8861
1580486289.451,8861
1580486299.452,8861
1580486309.453,8861
1580486319.452,8861
1580486329.451,8861
1580486339.452,8861
1580486349.452,8861
1580486359.456,8861
1580486369.452,8861
1580486379.453,8861
1580486389.452,8861
1580486399.451,8861
1580486409.452,8861
1580486419.452,8861
1580486429.452,8861
1580486439.452,8861
1580486449.452,8861
1580486459.453,8861
1580486469.451,8861
1580486479.452,8861
1580486489.452,8861
1580486499.452,8861
1580486509.452,8861
1580486519.452,8861
1580486529.451,8861
1580486539.453,8861
1580486549.452,8861
1580486559.452,8861
1580486569.452,8861
1580486579.451,8861
1580486589.452,8861
1580486599.451,8861
1580486609.452,8861
1580486619.452,8861
1580486629.451,8861
1580486639.452,8861
1580486649.454,8861
1580486659.452,8861
1580486669.454,8861
1580486679.452,8861
1580486689.453,8862
1580486699.452,8862
1580486709.452,8862
1580486719.452,8862
1580486729.452,8862
1580486739.451,8862
