epoch,value
1580561550.857,0
1580561560.857,0
1580561570.857,0
1580561580.858,0
1580561600.857,0
1580561610.857,0
1580561620.857,0
1580561630.857,0
1580561640.857,0
1580561650.857,0
1580561660.857,0
1580561670.857,0
1580561680.857,0
1580561690.857,0
1580561700.857,0
1580561710.857,0
1580561720.857,0
1580561730.857,0
1580561740.857,0
1580561750.857,0
1580561760.857,0
1580561770.857,0
1580561780.857,0
1580561790.857,0
1580561810.857,0
1580561820.857,0
1580561830.857,0
1580561840.857,0
1580561850.857,0
1580561860.857,0
1580561870.857,0
1580561880.857,0
1580561890.857,0
1580561900.857,0
1580561920.857,0
1580561930.857,0
1580561940.857,0
1580561950.857,0
1580561960.857,0
1580561970.857,0
1580561980.857,0
1580561990.857,0
1580562000.857,0
1580562010.857,0
1580562020.857,0
1580562030.857,0
1580562040.857,0
1580562050.857,0
1580562060.857,0
1580562070.857,0
1580562080.857,0
1580562090.857,0
1580562100.857,0
1580562110.857,0
1580562120.857,0
1580562130.857,0
1580562140.857,0
1580562150.857,0
1580562160.858,0
1580562170.861,0
1580562180.857,0
1580562190.857,0
1580562210.857,0
1580562220.857,0
1580562230.857,0
1580562240.857,0
1580562250.857,0
1580562260.857,0
1580562270.857,0
1580562280.857,0
1580562290.857,0
1580562300.857,0
1580562310.857,0
1580562320.857,0
1580562330.857,0
1580562340.857,0
1580562350.857,0
1580562360.857,0
1580562370.857,0
1580562380.857,0
1580562390.857,0
1580562400.857,0
1580562410.857,0
1580562420.857,0
1580562430.857,0
1580562440.857,0
1580562450.857,0
1580562460.857,0
1580562470.857,0
1580562480.857,0
1580562490.857,0
1580562500.857,0
1580562520.857,0
1580562530.857,0
1580562540.857,0
1580562550.857,0
1580562560.857,0
1580562570.857,0
1580562580.857,0
1580562590.857,0
1580562600.857,0
1580562610.857,0
1580562620.857,0
1580562630.857,0
1580562640.857,0
1580562650.857,0
1580562660.857,0
1580562670.857,0
1580562680.857,0
1580562690.857,0
1580562700.857,0
1580562710.857,0
1580562720.857,0
1580562730.857,0
1580562740.857,0
1580562750.857,0
1580562760.857,0
1580562770.857,0
1580562780.857,0
1580562790.857,0
1580562800.857,0
1580562810.857,0
1580562820.857,0
1580562830.857,0
1580562840.857,0
1580562850.857,0
1580562860.857,0
1580562870.857,0
1580562880.857,0
1580562890.857,0
1580562900.857,0
1580562910.857,0
1580562920.857,0
1580562930.857,0
1580562940.857,0
1580562950.857,0
1580562960.862,0
1580562970.857,1
1580562980.857,1
1580562990.857,1
1580563000.857,1
1580563010.857,1
1580563020.857,1
1580563030.857,1
1580563040.857,1
1580563050.857,1
1580563060.857,1
1580563070.857,1
1580563080.857,1
1580563090.857,1
1580563100.857,1
1580563110.857,1
1580563120.857,1
1580563130.857,1
1580563140.857,1
1580563160.857,1
1580563170.857,1
1580563180.857,1
1580563190.857,1
1580563200.857,1
1580563210.857,1
1580563220.857,1
1580563230.857,1
1580563240.857,1
1580563250.857,1
1580563260.857,1
1580563270.857,1
1580563280.857,1
1580563290.857,1
1580563300.857,1
1580563310.857,1
1580563320.857,1
1580563330.857,1
1580563340.857,1
1580563350.857,1
1580563360.857,1
1580563370.857,1
1580563380.857,1
1580563390.857,1
1580563400.857,1
1580563410.857,1
1580563420.857,1
1580563430.857,1
1580563440.857,1
1580563450.857,1
1580563460.857,1
1580563470.857,1
1580563480.857,1
1580563490.857,1
1580563500.857,1
1580563510.857,1
1580563520.857,1
1580563530.857,1
1580563540.857,1
1580563550.857,1
1580563560.857,1
1580563570.857,1
1580563580.857,1
1580563590.857,1
1580563600.857,1
1580563610.857,1
1580563620.857,1
1580563630.857,1
1580563640.857,1
1580563650.857,1
1580563660.857,1
1580563670.857,1
1580563680.857,1
1580563690.857,1
1580563700.857,1
1580563710.857,1
1580563720.857,1
1580563730.857,1
1580563740.857,1
1580563750.857,1
1580563760.857,1
1580563770.857,1
1580563780.857,1
1580563790.857,1
1580563800.857,1
1580563810.857,1
1580563820.857,1
1580563830.857,1
1580563840.857,1
1580563850.857,1
1580563860.857,1
1580563870.857,1
1580563880.857,1
1580563890.857,1
1580563900.857,1
1580563910.857,1
1580563920.857,1
1580563930.857,2
1580563940.857,2
1580563950.857,2
1580563960.857,2
1580563970.862,2
1580563980.857,2
1580563990.857,2
1580564000.857,2
1580564010.857,2
1580564020.857,2
1580564030.857,2
1580564040.857,2
1580564050.857,2
1580564060.857,2
1580564070.857,2
1580564080.857,2
1580564090.857,2
1580564100.857,2
1580564110.857,2
1580564120.857,2
1580564130.857,2
1580564140.857,2
1580564150.857,2
1580564160.857,2
1580564170.857,2
1580564180.857,2
1580564190.857,2
1580564200.857,2
1580564210.857,2
1580564220.857,2
1580564230.857,2
1580564240.857,2
1580564250.857,2
1580564260.857,2
1580564270.857,2
1580564280.857,2
1580564290.857,2
1580564300.857,2
1580564310.857,2
1580564320.857,2
1580564330.857,2
1580564340.857,2
1580564350.857,2
1580564360.857,2
1580564370.857,2
1580564380.857,2
1580564390.857,2
1580564400.857,2
1580564410.857,2
1580564420.857,2
1580564430.857,2
1580564440.857,2
1580564450.857,2
1580564460.857,2
1580564470.857,2
1580564480.857,2
1580564490.857,2
1580564500.857,2
1580564510.857,2
1580564520.857,2
1580564530.857,2
1580564540.857,2
1580564550.857,2
1580564560.857,2
1580564570.857,2
1580564580.857,2
1580564590.857,2
1580564600.857,2
1580564610.857,2
1580564620.857,3
1580564630.857,3
1580564640.857,3
1580564650.857,3
1580564660.857,3
1580564670.857,3
1580564680.857,3
1580564690.857,3
1580564700.857,3
1580564710.857,3
1580564720.857,3
1580564730.857,3
1580564740.857,3
1580564750.857,3
1580564760.857,3
1580564770.857,3
1580564780.857,3
1580564790.857,3
1580564800.857,3
1580564810.857,3
1580564820.857,3
1580564830.857,3
1580564840.857,3
1580564850.857,3
1580564860.857,3
1580564870.857,3
1580564880.857,3
1580564890.857,3
1580564900.857,3
1580564910.857,3
1580564920.857,3
1580564930.857,3
1580564940.862,3
1580564950.857,3
1580564960.857,3
1580564970.857,3
1580564980.857,3
1580564990.857,3
1580565000.857,3
1580565010.857,3
1580565020.857,3
1580565030.857,3
1580565040.857,3
1580565050.857,3
1580565060.857,3
1580565070.857,3
1580565080.857,3
1580565090.857,3
1580565100.857,3
1580565110.857,3
1580565120.857,3
1580565130.857,3
1580565140.857,3
1580565150.857,3
1580565160.857,3
1580565170.857,3
1580565180.857,3
1580565190.857,3
1580565200.857,3
1580565210.857,3
1580565220.857,3
1580565230.857,3
1580565240.857,3
1580565250.857,3
1580565260.857,3
1580565270.857,3
1580565280.857,3
1580565290.857,3
1580565300.857,3
1580565310.857,3
1580565320.857,3
1580565330.857,3
1580565340.857,3
1580565350.857,3
1580565360.857,3
1580565370.857,3
1580565380.857,3
1580565390.857,3
1580565400.857,3
1580565410.857,3
1580565420.857,3
1580565430.861,3
1580565440.857,3
1580565450.857,3
1580565460.857,3
1580565470.857,3
1580565480.857,3
1580565490.857,4
1580565500.857,4
1580565510.857,4
1580565520.857,4
1580565530.857,4
1580565540.857,4
1580565550.857,4
1580565560.857,4
1580565580.857,4
1580565590.857,4
1580565600.857,4
1580565610.857,4
1580565620.857,4
1580565630.857,4
1580565640.857,4
1580565650.857,4
1580565660.857,4
1580565670.857,4
1580565680.857,4
1580565690.857,4
1580565700.857,4
1580565710.857,4
1580565720.857,4
1580565730.857,4
1580565740.857,4
1580565750.857,4
1580565760.857,4
1580565770.857,4
1580565780.857,4
1580565790.857,4
1580565800.857,4
1580565810.857,4
1580565820.857,4
1580565830.857,4
1580565840.857,4
1580565850.857,4
1580565860.857,4
1580565870.857,4
1580565880.857,4
1580565890.857,4
1580565900.857,4
1580565910.857,4
1580565920.857,4
1580565930.857,4
1580565940.857,4
1580565950.857,4
1580565960.857,4
1580565970.857,4
1580565980.860,4
1580565990.857,4
1580566000.857,4
1580566010.857,4
1580566020.857,4
1580566030.857,4
1580566040.857,4
1580566050.857,4
1580566060.857,4
1580566070.857,4
1580566080.857,4
1580566090.858,4
1580566100.857,4
1580566110.857,4
1580566120.857,4
1580566130.857,4
1580566140.857,4
1580566150.857,4
1580566160.857,4
1580566170.857,4
1580566180.857,4
1580566190.857,4
1580566200.857,4
1580566210.857,4
1580566220.857,4
1580566230.857,4
1580566240.857,4
1580566250.857,4
1580566260.857,5
1580566270.857,5
1580566280.857,5
1580566290.857,5
1580566300.857,5
1580566310.857,5
1580566330.857,5
1580566340.857,5
1580566350.857,5
1580566360.857,5
1580566370.857,5
1580566380.857,5
1580566390.857,5
1580566400.857,5
1580566410.857,5
1580566420.857,5
1580566430.857,5
1580566440.857,5
1580566450.857,5
1580566460.857,5
1580566470.857,5
1580566480.857,5
1580566490.857,5
1580566510.857,5
1580566520.857,5
1580566530.857,5
1580566540.857,5
1580566550.857,5
1580566560.857,5
1580566570.857,5
1580566580.857,5
1580566590.857,5
1580566600.857,5
1580566610.857,5
1580566620.857,5
1580566630.857,5
1580566640.857,5
1580566650.857,5
1580566660.857,5
1580566670.857,5
1580566680.857,5
1580566690.857,5
1580566700.857,5
1580566710.857,5
1580566720.857,5
1580566730.857,5
1580566740.857,5
1580566750.857,5
1580566760.857,5
1580566770.857,5
1580566780.857,5
1580566790.857,5
1580566800.857,5
1580566810.857,5
1580566820.857,5
1580566830.857,5
1580566840.857,5
1580566850.857,5
1580566860.857,5
1580566870.857,5
1580566880.857,5
1580566890.857,5
1580566900.857,5
1580566910.857,5
1580566920.857,5
1580566930.857,5
1580566940.857,5
1580566950.857,5
1580566960.857,5
1580566970.857,5
1580566980.857,5
1580566990.857,5
1580567000.857,5
1580567010.857,5
1580567020.857,5
1580567030.857,5
1580567040.857,5
1580567050.857,5
1580567060.857,5
1580567070.857,5
1580567080.857,5
1580567090.857,5
1580567100.857,5
1580567110.857,5
1580567120.857,5
1580567130.857,6
1580567140.857,6
1580567150.857,6
1580567160.857,6
1580567170.857,6
1580567180.857,6
1580567190.857,6
1580567200.857,6
1580567210.857,6
1580567220.857,6
1580567230.857,6
1580567240.857,6
1580567250.857,6
1580567260.857,6
1580567270.857,6
1580567280.857,6
1580567290.857,6
1580567300.857,6
1580567310.857,6
1580567320.857,6
1580567330.857,6
1580567340.857,6
1580567350.857,6
1580567360.857,6
1580567370.857,6
1580567380.857,6
1580567390.857,6
1580567400.857,6
1580567410.857,6
1580567420.857,6
1580567430.857,6
1580567440.857,6
1580567450.857,6
1580567460.857,6
1580567470.857,6
1580567480.857,6
1580567490.857,6
1580567500.857,6
1580567510.857,6
1580567520.857,6
1580567530.857,6
1580567540.857,6
1580567550.857,6
1580567560.857,6
1580567570.857,6
1580567580.857,6
1580567590.857,6
1580567600.857,6
1580567610.857,6
1580567620.857,6
1580567630.857,6
1580567640.857,6
1580567650.857,6
1580567660.857,6
1580567670.857,6
1580567680.857,6
1580567690.857,6
1580567700.857,6
1580567710.857,6
1580567720.857,6
1580567730.857,6
1580567740.857,6
1580567750.857,6
1580567760.857,6
1580567770.857,6
1580567780.857,6
1580567790.857,6
1580567800.857,6
1580567810.857,6
1580567820.857,6
1580567830.857,6
1580567840.857,6
1580567850.857,6
1580567860.857,6
1580567870.857,6
1580567880.857,6
1580567890.857,6
1580567900.857,6
1580567910.857,6
1580567920.857,6
1580567930.857,6
1580567940.857,6
1580567950.857,6
1580567960.857,6
1580567970.857,6
1580567980.857,6
1580567990.857,6
1580568000.857,6
1580568010.857,6
1580568020.857,6
1580568030.857,6
1580568040.857,6
1580568050.857,6
1580568060.857,7
1580568070.857,7
1580568080.857,7
1580568090.857,7
1580568100.857,7
1580568110.857,7
1580568120.857,7
1580568130.857,7
1580568140.857,7
1580568150.857,7
1580568160.857,7
1580568170.857,7
1580568180.857,7
1580568190.857,7
1580568200.857,7
1580568210.857,7
1580568220.857,7
1580568230.857,7
1580568240.857,7
1580568250.857,7
1580568260.857,7
1580568270.857,7
1580568280.857,7
1580568290.857,7
1580568300.857,7
1580568310.857,7
1580568320.857,7
1580568330.857,7
1580568340.857,7
1580568350.857,7
1580568360.857,7
1580568370.857,7
1580568380.857,7
1580568390.857,7
1580568400.857,7
1580568410.857,7
1580568420.857,7
1580568430.857,7
1580568440.857,7
1580568450.857,7
1580568460.857,7
1580568470.857,7
1580568480.857,7
1580568490.857,7
1580568500.857,7
1580568510.857,7
1580568520.857,7
1580568530.857,7
1580568540.857,7
1580568550.857,7
1580568560.857,7
1580568570.857,7
1580568580.857,7
1580568590.857,7
1580568600.857,7
1580568610.857,7
1580568620.857,7
1580568630.857,7
1580568640.857,7
1580568650.857,7
1580568660.857,7
1580568670.857,7
1580568680.857,7
1580568690.857,7
1580568700.857,7
1580568710.857,7
1580568720.857,7
1580568730.857,7
1580568740.857,7
1580568750.857,7
1580568760.857,7
1580568770.857,7
1580568780.857,7
1580568790.857,7
1580568800.857,7
1580568810.857,7
1580568820.857,7
1580568830.857,7
1580568840.857,7
1580568850.857,7
1580568860.857,7
1580568870.857,7
1580568880.857,7
1580568890.857,7
1580568900.857,8
1580568910.857,8
1580568920.857,8
1580568930.861,8
1580568940.857,8
1580568950.857,8
1580568960.857,8
1580568970.857,8
1580568980.857,8
1580568990.857,8
1580569000.857,8
1580569010.857,8
1580569020.857,8
1580569030.857,8
1580569040.857,8
1580569050.857,8
1580569060.857,8
1580569070.857,8
1580569080.857,8
1580569090.857,8
1580569100.857,8
1580569110.857,8
1580569120.857,8
1580569130.857,8
1580569140.857,8
1580569150.857,8
1580569160.857,8
1580569170.857,8
1580569180.857,8
1580569190.857,8
1580569200.857,8
1580569210.857,8
1580569230.857,8
1580569240.857,8
1580569250.857,8
1580569260.857,8
1580569270.857,8
1580569280.857,8
1580569290.857,8
1580569300.857,8
1580569310.857,8
1580569320.857,8
1580569330.857,8
1580569340.857,8
1580569350.857,8
1580569360.857,8
1580569370.857,8
1580569380.857,8
1580569390.857,8
1580569400.857,8
1580569410.857,8
1580569420.857,8
1580569430.857,8
1580569440.857,8
1580569450.857,8
1580569460.857,8
1580569470.857,8
1580569480.857,8
1580569490.857,8
1580569500.857,8
1580569510.857,8
1580569520.857,8
1580569530.857,8
1580569540.857,8
1580569550.857,8
1580569560.857,8
1580569570.857,8
1580569580.857,8
1580569590.857,8
1580569600.857,8
1580569610.857,8
1580569620.857,8
1580569630.857,8
1580569640.857,8
1580569650.857,8
1580569660.857,8
1580569670.857,8
1580569680.857,8
