epoch,value
1579799681.100,0
1579799691.100,0
1579799701.101,0
1579799721.101,6
1579799731.100,13
1579799741.101,31
1579799751.100,42
1579799761.100,54
1579799771.100,75
1579799781.100,93
1579799791.100,120
1579799801.100,133
1579799811.100,163
1579799821.100,190
1579799831.100,193
1579799841.100,196
1579799851.100,207
1579799861.100,222
1579799871.100,225
1579799881.100,228
1579799891.100,248
1579799901.100,269
1579799911.100,275
1579799931.102,364
1579799941.100,382
1579799951.100,388
1579799961.100,394
1579799971.100,400
1579799981.100,405
1579799991.100,406
1579800001.100,418
1579800011.100,419
1579800021.107,419
1579800031.100,419
1579800041.100,419
1579800051.100,419
1579800061.101,419
1579800071.100,419
1579800081.100,419
1579800091.100,419
1579800101.100,419
1579800111.100,419
1579800121.101,419
1579800131.100,419
1579800141.100,419
1579800151.100,419
1579800161.100,419
1579800171.101,419
1579800181.100,419
1579800191.100,419
1579800201.100,419
1579800211.100,419
1579800221.100,419
1579800231.100,419
1579800241.100,419
1579800251.100,419
1579800261.100,419
1579800271.100,419
1579800281.100,419
1579800291.100,419
1579800301.100,419
1579800311.100,419
1579800321.100,419
1579800331.100,419
1579800341.100,419
1579800351.100,419
1579800361.100,419
1579800371.100,419
1579800381.100,419
1579800391.100,419
1579800401.100,419
1579800411.100,419
1579800421.100,419
1579800431.100,419
1579800441.100,419
1579800451.100,419
1579800461.100,419
1579800471.100,419
1579800481.100,419
1579800491.100,419
1579800501.100,419
1579800511.100,419
1579800521.100,420
1579800531.100,420
1579800541.100,420
1579800551.100,420
1579800561.100,420
1579800571.100,420
1579800581.100,420
1579800591.100,420
1579800601.100,420
1579800611.100,420
1579800621.100,420
1579800631.100,420
1579800641.100,420
1579800651.100,420
1579800661.100,420
1579800671.100,420
1579800681.100,420
1579800691.100,420
1579800701.100,420
1579800711.100,420
1579800721.100,420
1579800731.101,420
1579800741.100,420
1579800751.101,420
1579800761.100,420
1579800771.100,420
1579800781.101,420
1579800791.100,420
1579800801.100,420
1579800811.100,420
1579800821.100,420
1579800831.100,420
1579800841.100,420
1579800851.100,420
1579800861.100,420
1579800871.100,420
1579800881.100,420
1579800891.100,420
1579800901.101,420
1579800911.100,420
1579800921.100,420
1579800931.100,420
1579800941.100,420
1579800951.100,420
1579800961.100,420
1579800971.100,421
1579800981.100,421
1579800991.101,421
1579801001.100,421
1579801011.100,421
1579801021.100,421
1579801031.100,421
1579801041.100,421
1579801051.100,421
1579801061.100,421
1579801071.100,421
1579801081.100,421
1579801091.100,421
1579801101.100,421
1579801111.100,421
1579801121.100,421
1579801131.100,421
1579801141.100,421
1579801151.100,421
1579801161.100,421
1579801171.101,421
1579801181.100,421
1579801191.100,421
1579801201.100,421
1579801211.100,421
