epoch,value
1579936735.731,256340
1579936745.711,256341
1579936755.713,256341
1579936765.711,256341
1579936775.712,256344
1579936785.711,256344
1579936795.711,256350
1579936805.713,256358
1579936815.714,256378
1579936825.711,256402
1579936835.711,256425
1579936845.711,256433
1579936855.711,256451
1579936865.711,256479
1579936875.714,256514
1579936885.712,256545
1579936895.713,256570
1579936905.711,256592
1579936915.711,256621
1579936925.712,256645
1579936935.712,256662
1579936945.711,256686
1579936955.711,256711
1579936965.711,256741
1579936975.711,256768
1579936985.711,256788
1579936995.711,256813
1579937005.711,256847
1579937015.712,256875
1579937025.712,256899
1579937035.711,256921
1579937045.713,256948
1579937055.711,256975
1579937065.712,256995
1579937075.713,257018
1579937085.711,257047
1579937095.711,257089
1579937105.711,257120
1579937115.711,257144
1579937125.712,257176
1579937135.711,257208
1579937145.712,257240
1579937155.711,257274
1579937165.715,257314
1579937175.711,257336
1579937185.711,257371
1579937195.715,257399
1579937205.711,257418
1579937215.711,257447
1579937225.711,257468
1579937235.711,257494
1579937245.711,257524
1579937255.713,257555
1579937265.711,257590
1579937275.712,257620
1579937285.711,257653
1579937295.712,257687
1579937305.711,257719
1579937315.711,257754
1579937325.712,257789
1579937335.711,257817
1579937345.711,257846
1579937355.711,257890
1579937365.712,257916
1579937375.711,257956
1579937385.711,257988
1579937395.711,258013
1579937405.712,258048
1579937415.713,258078
1579937425.711,258113
1579937435.711,258145
1579937445.712,258178
1579937455.712,258206
1579937465.712,258238
1579937475.711,258274
1579937485.711,258312
1579937495.711,258350
1579937505.711,258383
1579937515.711,258416
1579937525.711,258444
1579937535.712,258478
1579937545.711,258507
1579937555.712,258534
1579937565.711,258560
1579937575.711,258588
1579937585.712,258612
1579937595.711,258646
1579937605.711,258683
1579937615.712,258704
1579937625.711,258704
1579937635.712,258704
1579937645.712,258704
1579937655.712,258704
1579937665.711,258704
1579937675.711,258704
1579937685.711,258704
1579937695.711,258704
1579937705.711,258706
1579937715.711,258706
1579937725.711,258708
1579937735.711,258708
1579937745.712,258710
1579937755.711,258710
1579937765.711,258711
1579937775.711,258711
1579937785.711,258711
1579937795.711,258712
1579937805.712,258712
1579937815.711,258712
1579937825.711,258714
1579937835.711,258715
1579937845.711,258715
1579937855.711,258715
1579937865.711,258716
1579937875.712,258716
1579937885.711,258716
1579937895.711,258718
1579937905.712,258718
1579937915.711,258718
1579937925.711,258719
1579937935.711,258719
1579937945.712,258720
1579937955.711,258720
1579937965.711,258720
1579937975.711,258722
1579937985.711,258722
1579937995.711,258722
1579938005.711,258722
1579938015.711,258724
1579938025.711,258724
1579938035.711,258724
1579938045.713,258724
1579938055.711,258725
1579938065.714,258726
1579938075.711,258726
1579938085.711,258727
1579938095.711,258730
1579938105.712,258730
1579938115.711,258730
1579938125.711,258730
1579938135.711,258731
1579938145.711,258731
1579938155.711,258732
1579938165.712,258732
1579938175.713,258733
1579938185.712,258733
1579938195.711,258735
1579938205.711,258735
1579938215.713,258736
1579938225.712,258737
1579938235.711,258739
1579938245.711,258740
1579938255.711,258741
1579938265.711,258742
1579938275.712,258742
1579938285.713,258743
1579938295.712,258744
1579938305.711,258746
1579938315.711,258746
1579938325.711,258748
1579938335.711,258749
1579938345.714,258751
1579938355.711,258753
1579938365.711,258753
1579938375.711,258753
1579938385.711,258754
1579938395.711,258755
1579938405.711,258756
1579938415.711,258756
1579938425.711,258757
1579938435.712,258757
1579938445.711,258758
1579938455.711,258760
1579938465.711,258761
1579938475.712,258762
1579938485.711,258762
1579938495.711,258763
1579938505.711,258764
1579938515.713,258764
1579938525.711,258764
1579938535.712,258765
1579938545.713,258765
1579938555.711,258766
1579938565.711,258766
1579938575.711,258766
1579938585.712,258768
1579938595.711,258768
1579938605.711,258769
1579938615.712,258770
1579938625.711,258771
1579938635.711,258772
1579938645.711,258774
1579938655.711,258774
1579938665.711,258774
1579938675.711,258774
1579938685.713,258776
1579938695.711,258777
1579938705.711,258778
1579938715.711,258779
1579938725.712,258780
1579938735.714,258780
1579938745.714,258780
1579938755.711,258782
1579938765.711,258782
1579938775.714,258783
1579938785.711,258783
1579938795.712,258783
1579938805.711,258783
1579938815.711,258784
1579938825.711,258785
1579938835.713,258785
1579938845.711,258785
1579938855.712,258786
1579938865.711,258786
1579938875.711,258787
1579938885.712,258787
1579938895.711,258789
1579938905.711,258790
1579938915.711,258790
1579938925.711,258791
1579938935.712,258791
1579938945.712,258791
1579938955.711,258791
1579938965.712,258792
1579938975.711,258792
1579938985.712,258792
1579938995.713,258792
1579939005.711,258792
1579939015.711,258792
1579939025.711,258792
1579939035.711,258794
1579939045.711,258794
1579939055.711,258795
1579939065.711,258795
1579939075.711,258795
1579939085.711,258796
1579939095.711,258797
1579939105.711,258797
1579939115.712,258797
1579939125.711,258797
1579939135.711,258799
1579939145.711,258800
1579939155.711,258800
1579939165.712,258801
1579939175.715,258803
1579939185.711,258804
1579939195.711,258804
1579939205.711,258805
1579939215.711,258806
1579939225.711,258806
1579939235.711,258807
1579939245.711,258808
1579939255.712,258808
1579939265.711,258809
1579939275.711,258810
1579939285.712,258810
1579939295.712,258811
1579939305.712,258812
1579939315.711,258812
1579939325.711,258812
1579939335.711,258813
1579939345.711,258813
1579939355.711,258814
1579939365.712,258814
1579939375.713,258814
1579939385.712,258814
1579939395.711,258814
1579939405.712,258815
1579939415.711,258816
1579939425.711,258817
1579939435.712,258817
1579939445.711,258817
1579939455.711,258817
1579939465.711,258819
1579939475.711,258820
1579939485.711,258821
1579939495.711,258821
