epoch,value
1580474569.388,0
1580474579.388,0
1580474599.388,0
1580474609.388,0
1580474619.388,0
1580474629.388,0
1580474639.388,0
1580474649.388,0
1580474659.388,0
1580474669.388,0
1580474689.388,0
1580474699.388,0
1580474709.388,0
1580474719.388,0
1580474729.389,0
1580474739.388,0
1580474749.388,0
1580474759.388,0
1580474769.388,0
1580474779.388,0
1580474789.388,1
1580474799.388,1
1580474809.388,1
1580474819.388,1
1580474829.388,1
1580474839.388,1
1580474849.388,1
1580474859.388,1
1580474869.388,1
1580474879.388,1
1580474889.388,1
1580474899.388,1
1580474909.388,1
1580474919.388,2
1580474929.388,2
1580474939.388,2
1580474949.388,2
1580474959.389,2
1580474969.388,2
1580474979.388,2
1580474989.389,2
1580474999.388,2
1580475009.388,2
1580475019.388,2
1580475029.388,2
1580475039.388,2
1580475049.392,2
1580475059.388,2
1580475069.388,3
1580475079.388,3
1580475089.388,3
1580475099.388,3
1580475109.388,3
1580475119.388,3
1580475129.388,3
1580475139.388,3
1580475149.388,3
1580475159.388,3
1580475169.388,3
1580475179.388,3
1580475189.388,3
1580475199.388,3
1580475209.388,3
1580475219.388,3
1580475229.392,3
1580475239.388,4
1580475249.388,4
1580475259.388,4
1580475269.388,4
1580475279.388,4
1580475289.388,4
1580475299.388,4
1580475309.388,4
1580475319.388,4
1580475329.388,4
1580475339.388,4
1580475349.388,4
1580475359.388,4
1580475369.388,5
1580475379.388,5
1580475389.388,5
1580475399.388,5
1580475409.388,5
1580475419.388,5
1580475429.388,5
1580475439.388,5
1580475449.388,5
1580475459.392,5
1580475469.388,5
1580475479.388,6
1580475489.388,6
1580475499.388,6
1580475509.388,6
1580475519.388,6
1580475529.388,6
1580475539.388,6
1580475549.388,6
1580475559.388,6
1580475569.388,6
1580475579.388,6
1580475589.388,6
1580475599.388,6
1580475609.388,6
1580475619.388,6
1580475629.388,6
1580475639.388,6
1580475649.388,6
1580475659.388,7
1580475669.388,7
1580475679.388,7
1580475689.388,7
1580475699.388,7
1580475709.389,7
1580475719.388,7
1580475729.388,7
1580475739.388,7
1580475749.388,7
1580475759.388,7
1580475769.388,7
1580475779.388,7
1580475789.388,7
1580475799.388,7
1580475809.388,7
1580475819.388,7
1580475829.388,7
1580475839.388,8
1580475849.388,8
1580475859.388,8
1580475869.388,8
1580475879.388,8
1580475889.388,8
1580475899.388,8
1580475909.388,8
1580475919.388,8
1580475929.388,8
1580475939.388,8
1580475949.388,8
1580475959.388,8
1580475969.388,8
1580475979.388,8
1580475989.388,8
1580475999.388,8
1580476009.388,8
1580476019.388,8
1580476029.388,8
1580476039.388,8
1580476049.388,8
1580476059.388,8
1580476069.388,8
1580476079.388,8
1580476099.388,8
