epoch,value
1580423019.561,0
1580423029.561,0
1580423039.561,0
1580423049.561,0
1580423059.561,0
1580423069.561,0
1580423079.561,0
1580423089.563,0
1580423099.561,0
1580423109.561,0
1580423119.561,0
1580423129.561,0
1580423139.561,0
1580423149.561,0
1580423159.561,0
1580423169.561,0
1580423179.561,0
1580423189.561,0
1580423199.561,0
1580423209.561,0
1580423219.561,0
1580423229.561,0
1580423239.561,0
1580423249.561,0
1580423259.561,0
1580423269.561,0
1580423279.561,0
1580423289.561,0
1580423299.561,0
1580423309.561,0
1580423319.561,0
1580423329.561,0
1580423339.561,0
1580423349.561,0
1580423359.561,0
1580423369.561,0
1580423379.561,0
1580423389.561,0
1580423399.561,0
1580423409.561,0
1580423419.561,0
1580423429.561,0
1580423439.561,0
1580423449.561,0
1580423459.561,0
1580423469.561,0
1580423479.561,0
1580423489.561,0
1580423499.561,0
1580423509.561,0
1580423519.561,0
1580423529.561,0
1580423539.561,0
1580423549.561,0
1580423559.561,0
1580423569.561,1
1580423579.561,1
1580423589.561,1
1580423599.561,1
1580423609.561,1
1580423619.561,1
1580423629.561,1
1580423639.561,1
1580423649.561,1
1580423659.561,1
1580423669.561,1
1580423679.561,1
1580423689.561,1
1580423699.561,1
1580423709.561,1
1580423719.561,1
1580423729.561,1
1580423739.561,1
1580423749.561,1
1580423759.561,1
1580423769.561,1
1580423779.561,1
1580423789.561,1
1580423799.561,1
1580423809.561,1
1580423819.561,1
1580423829.561,1
1580423839.561,1
1580423849.561,1
1580423859.561,1
1580423869.561,1
1580423879.561,1
1580423889.561,1
1580423899.561,1
1580423909.561,1
1580423919.561,1
1580423929.561,1
1580423939.561,1
1580423949.561,1
1580423959.561,1
1580423969.561,1
1580423979.561,1
1580423989.561,1
1580423999.561,1
1580424009.561,1
1580424019.561,1
1580424029.561,1
1580424039.561,1
1580424049.561,1
1580424059.561,1
1580424069.561,1
1580424079.561,1
1580424089.561,1
1580424099.561,1
1580424109.561,1
1580424119.561,1
1580424129.561,1
1580424139.561,1
1580424149.561,1
1580424159.561,1
1580424169.561,1
1580424179.561,1
1580424189.561,2
1580424199.561,2
1580424209.561,2
1580424219.561,2
1580424229.561,2
1580424239.561,2
1580424249.561,2
1580424259.561,2
1580424269.561,2
1580424279.561,2
1580424289.561,2
1580424299.561,2
1580424309.561,2
1580424319.561,2
1580424329.561,2
1580424339.561,2
1580424349.561,2
1580424359.561,2
1580424369.561,2
1580424379.561,2
1580424389.561,2
1580424399.561,2
1580424409.561,2
1580424419.561,2
1580424429.561,2
1580424439.561,2
1580424449.561,2
1580424459.561,2
1580424469.561,2
1580424479.561,2
1580424489.561,2
1580424499.561,2
1580424509.561,2
1580424519.561,2
1580424529.561,2
1580424539.561,2
1580424549.561,2
1580424559.561,2
1580424569.561,2
1580424579.561,2
1580424589.561,2
1580424599.561,2
1580424609.561,2
1580424619.561,2
1580424629.561,2
1580424639.561,2
1580424649.561,2
1580424659.561,2
1580424669.561,2
1580424679.561,2
1580424689.561,2
1580424699.561,2
1580424709.561,2
1580424719.561,2
1580424729.561,2
1580424739.561,2
1580424749.561,2
1580424759.561,2
1580424769.561,2
1580424779.561,2
1580424789.561,2
1580424799.561,2
1580424809.561,2
1580424819.561,2
1580424829.561,2
1580424839.561,2
1580424849.561,2
1580424859.561,2
1580424869.561,2
1580424879.561,2
1580424889.561,2
1580424899.561,2
1580424909.561,2
1580424919.561,2
1580424929.561,2
1580424939.561,2
1580424949.561,2
1580424959.561,2
1580424969.561,2
1580424979.561,2
1580424989.561,2
1580424999.561,2
1580425009.561,2
1580425019.561,2
1580425029.561,3
1580425039.561,3
1580425049.561,3
1580425059.561,3
1580425069.561,3
1580425079.561,3
1580425089.561,3
1580425099.561,3
1580425109.561,3
1580425119.561,3
1580425129.561,3
1580425139.561,3
1580425149.561,3
1580425159.561,3
1580425169.561,3
1580425179.561,3
1580425189.561,3
1580425199.561,3
1580425209.561,3
1580425219.561,3
1580425229.561,3
1580425239.561,3
1580425249.561,3
1580425259.561,3
1580425269.561,3
1580425279.561,3
1580425289.561,3
1580425299.561,3
1580425309.561,3
1580425319.561,3
1580425329.561,3
1580425339.561,3
1580425349.561,3
1580425359.561,3
1580425369.561,3
1580425379.561,3
1580425389.561,3
1580425399.561,3
1580425409.561,3
1580425419.561,3
1580425429.561,3
1580425439.561,3
1580425449.561,3
1580425459.561,3
1580425469.561,3
1580425479.561,3
1580425489.561,3
1580425499.561,3
1580425509.561,3
1580425519.561,3
1580425529.561,3
1580425539.561,3
1580425549.561,3
1580425559.561,3
1580425569.561,3
1580425579.561,3
1580425589.561,3
1580425599.561,3
1580425609.561,3
1580425619.561,4
1580425629.561,4
1580425639.561,4
1580425649.561,4
1580425659.561,4
1580425669.561,4
1580425679.561,4
1580425689.561,4
1580425699.561,4
1580425709.561,4
1580425719.561,4
1580425729.561,4
1580425739.561,4
1580425749.561,4
1580425759.561,4
1580425769.561,4
1580425779.561,4
1580425789.561,4
1580425799.561,4
1580425809.561,4
1580425819.561,4
1580425829.561,4
1580425839.561,4
1580425849.561,4
1580425859.561,4
1580425869.561,4
1580425879.561,4
1580425889.561,4
1580425899.561,4
1580425909.561,4
1580425919.561,4
1580425929.561,4
1580425939.561,4
1580425949.561,4
1580425959.561,4
1580425969.561,4
1580425979.561,4
1580425989.561,4
1580425999.561,4
1580426009.561,4
1580426019.561,4
1580426029.561,4
1580426039.561,4
1580426049.561,4
1580426059.561,4
1580426069.561,4
1580426079.561,4
1580426089.561,4
1580426099.561,4
1580426109.561,4
1580426119.561,4
1580426129.561,4
1580426139.561,4
1580426149.563,4
1580426159.561,4
1580426169.561,4
1580426179.561,4
1580426189.561,4
1580426199.561,4
1580426209.561,4
1580426219.561,4
1580426229.561,4
1580426239.561,4
1580426249.561,4
1580426259.561,4
1580426269.561,4
1580426279.561,4
1580426289.561,4
1580426299.561,4
1580426309.561,4
1580426319.561,4
1580426329.561,5
1580426339.561,5
1580426349.561,5
1580426359.561,5
1580426369.561,5
1580426379.561,5
1580426389.561,5
1580426399.561,5
1580426409.561,5
1580426419.561,5
1580426429.561,5
1580426439.561,5
1580426449.561,5
1580426459.561,5
1580426469.561,5
1580426479.561,5
1580426489.561,5
1580426499.561,5
1580426509.561,5
1580426519.561,5
1580426529.561,5
1580426539.561,5
1580426549.561,5
1580426559.561,5
1580426569.561,5
1580426579.561,5
1580426589.561,5
1580426599.561,5
1580426609.561,5
1580426619.561,5
1580426629.561,5
1580426639.561,5
1580426649.561,5
1580426659.561,5
1580426669.561,5
1580426679.561,5
1580426689.561,5
1580426699.561,5
1580426709.561,5
1580426719.561,5
1580426729.561,5
1580426739.561,5
1580426749.561,5
1580426759.561,5
1580426769.561,5
1580426779.561,5
1580426789.561,5
1580426799.561,5
1580426809.561,5
1580426819.561,5
1580426829.561,5
1580426839.561,5
1580426849.561,5
1580426859.561,5
1580426869.561,5
1580426879.561,5
1580426889.561,5
1580426899.561,5
1580426909.561,5
1580426919.561,5
1580426929.561,5
1580426939.561,5
1580426949.561,5
1580426959.561,5
1580426969.561,5
1580426979.561,5
1580426989.561,5
1580426999.561,5
1580427009.561,5
1580427019.561,5
1580427029.561,5
1580427039.561,5
1580427049.561,5
1580427059.561,5
1580427069.561,5
1580427079.561,5
1580427089.561,5
1580427099.561,6
1580427109.561,6
1580427119.561,6
1580427129.561,6
1580427139.561,6
1580427149.561,6
1580427159.561,6
1580427169.561,6
1580427179.561,6
1580427189.561,6
1580427199.561,6
1580427209.561,6
1580427219.561,6
1580427229.561,6
1580427239.561,6
1580427249.561,6
1580427259.561,6
1580427269.561,6
1580427279.561,6
1580427289.561,6
1580427299.561,6
1580427309.561,6
1580427319.561,6
1580427329.561,6
1580427339.561,6
1580427349.561,6
1580427359.561,6
1580427369.561,6
1580427379.561,6
1580427389.561,6
1580427399.561,6
1580427409.561,6
1580427419.561,6
1580427429.561,6
1580427439.561,6
1580427449.561,6
1580427459.561,6
1580427469.561,6
1580427479.561,6
1580427489.561,6
1580427499.561,6
1580427509.561,6
1580427519.561,6
1580427529.561,6
1580427539.561,6
1580427549.561,6
1580427559.561,6
1580427569.561,6
1580427579.561,6
1580427589.561,6
1580427599.561,6
1580427609.561,6
1580427619.561,6
1580427629.561,6
1580427639.561,6
1580427649.561,6
1580427659.561,6
1580427669.561,6
1580427679.561,6
1580427689.561,6
1580427699.561,6
1580427709.561,6
1580427719.561,6
1580427729.561,6
1580427739.561,6
1580427749.561,6
1580427759.561,6
1580427769.561,6
1580427779.561,6
1580427789.561,6
1580427799.561,6
1580427809.561,6
1580427819.561,6
1580427829.561,6
1580427839.561,6
1580427849.561,6
1580427859.561,6
1580427869.561,6
1580427879.561,6
1580427889.561,6
1580427899.561,6
1580427909.561,6
1580427919.561,6
1580427929.561,6
1580427939.561,6
1580427949.561,6
1580427959.561,6
1580427969.561,6
1580427979.567,6
1580427989.561,6
1580427999.561,6
1580428009.561,6
1580428019.561,6
1580428029.561,6
1580428039.561,6
1580428049.561,6
1580428059.561,6
1580428069.561,6
1580428079.561,6
1580428089.561,7
1580428099.561,7
1580428109.561,7
1580428119.561,7
1580428129.561,7
1580428139.561,7
1580428149.561,7
1580428159.561,7
1580428169.561,7
1580428179.561,7
1580428189.561,7
1580428199.561,7
1580428209.561,7
1580428219.561,7
1580428229.561,7
1580428239.561,7
1580428249.561,7
1580428259.561,7
1580428269.561,7
1580428279.561,7
1580428289.561,7
1580428299.561,7
1580428309.561,7
1580428319.561,7
1580428329.561,7
1580428339.561,7
1580428349.561,7
1580428359.561,7
1580428369.561,7
1580428379.561,7
1580428389.561,7
1580428399.561,7
1580428409.561,7
1580428419.561,7
1580428429.561,7
1580428439.561,7
1580428449.561,7
1580428459.561,7
1580428469.561,7
1580428479.561,7
1580428489.561,7
1580428499.561,7
1580428509.561,7
1580428519.561,7
1580428529.561,7
1580428539.561,7
1580428549.561,7
1580428559.561,7
1580428569.561,7
1580428579.561,7
1580428589.561,7
1580428599.561,7
1580428609.561,7
1580428619.561,7
1580428629.561,7
1580428639.561,7
1580428649.561,7
1580428659.561,7
1580428669.561,7
1580428679.561,7
1580428689.561,7
1580428699.561,7
1580428709.561,7
1580428719.561,7
1580428729.561,7
1580428739.561,7
1580428749.561,7
1580428759.561,7
1580428769.561,7
1580428779.561,7
1580428789.561,7
1580428799.561,7
