epoch,value
1580428809.561,7
1580428819.561,7
1580428829.561,7
1580428839.561,7
1580428849.561,7
1580428859.561,8
1580428869.561,8
1580428879.561,8
1580428889.561,8
1580428899.561,8
1580428909.561,8
1580428919.561,8
1580428929.561,8
1580428939.561,8
1580428949.561,8
1580428959.561,8
1580428969.561,8
1580428979.561,8
1580428989.561,8
1580428999.561,8
1580429009.561,8
1580429019.561,8
1580429029.561,8
1580429039.561,8
1580429049.561,8
1580429059.561,8
1580429069.561,8
1580429079.561,8
1580429089.561,8
1580429099.561,8
1580429109.561,8
1580429119.561,8
1580429129.561,8
1580429139.561,8
1580429149.561,8
1580429159.561,8
1580429169.561,8
1580429179.561,8
1580429189.561,8
1580429199.561,8
1580429209.561,8
1580429219.561,8
1580429229.561,8
1580429239.561,8
1580429249.561,8
1580429259.561,8
1580429269.561,8
1580429279.561,8
1580429289.561,8
1580429299.561,8
1580429309.561,8
1580429319.561,8
1580429329.561,8
1580429339.561,8
1580429349.561,8
1580429359.561,8
1580429369.561,8
1580429379.569,8
1580429389.561,8
1580429399.561,8
1580429409.561,8
1580429419.561,8
1580429429.561,8
1580429439.561,8
1580429449.561,8
1580429459.561,8
1580429469.561,8
1580429479.561,8
1580429489.561,8
1580429499.561,8
1580429509.561,8
1580429519.561,8
1580429529.561,8
1580429539.561,8
1580429549.561,8
1580429559.561,8
1580429569.561,8
1580429579.561,8
1580429589.561,8
1580429599.561,8
1580429609.561,8
1580429619.561,8
1580429629.561,8
1580429639.561,8
1580429649.561,8
1580429659.561,8
1580429669.561,8
1580429679.561,8
1580429689.561,8
1580429699.561,8
1580429709.561,8
1580429719.561,8
1580429729.561,8
1580429739.561,8
1580429749.561,8
1580429759.561,8
1580429769.561,9
1580429779.561,9
1580429789.561,9
1580429799.561,9
1580429809.561,9
1580429819.561,9
1580429829.561,9
1580429839.561,9
1580429849.561,9
1580429859.561,9
1580429869.561,9
1580429879.561,9
1580429889.561,9
1580429899.561,9
1580429909.561,9
1580429919.561,9
1580429929.561,9
1580429939.561,9
1580429949.561,9
1580429959.561,9
1580429969.561,9
1580429979.561,9
1580429989.561,9
1580429999.561,9
1580430009.561,9
1580430019.561,9
1580430029.561,9
1580430039.561,9
1580430049.561,9
1580430059.561,9
1580430069.561,9
1580430079.561,9
1580430089.561,9
1580430099.561,9
1580430109.561,9
1580430119.561,9
1580430129.561,9
1580430139.561,9
1580430149.561,9
1580430159.561,9
1580430169.561,9
1580430179.561,9
1580430189.561,9
1580430199.561,9
1580430209.561,9
1580430219.561,9
1580430229.561,9
1580430239.561,9
1580430249.561,9
1580430259.561,9
1580430269.561,9
1580430279.561,9
1580430289.561,9
1580430299.561,9
1580430309.561,9
1580430319.561,9
1580430329.561,9
1580430339.561,9
1580430349.561,9
1580430359.561,9
1580430369.561,9
1580430379.561,9
1580430389.561,9
1580430399.561,9
1580430409.561,9
1580430419.561,9
1580430429.561,9
