epoch,value
1580753872.811,0
1580753882.811,0
1580753892.811,13
1580753902.817,28
1580753912.815,46
1580753922.811,59
1580753932.811,78
1580753942.811,96
1580753952.814,109
1580753962.811,128
1580753972.811,150
1580753982.811,174
1580753992.811,186
1580754002.811,206
1580754012.811,222
1580754022.811,238
1580754032.811,254
1580754042.811,273
1580754052.811,292
1580754062.811,312
1580754072.811,323
1580754082.811,347
1580754092.811,363
1580754102.811,386
1580754112.811,393
1580754122.811,398
1580754132.811,413
1580754142.811,437
1580754152.811,456
1580754162.811,473
1580754172.811,488
1580754182.811,502
1580754192.811,502
1580754202.811,503
1580754212.811,504
1580754222.811,504
1580754232.811,505
1580754242.811,506
1580754252.811,506
1580754262.811,507
1580754272.811,507
1580754282.811,508
1580754292.811,508
1580754302.811,508
1580754312.811,509
1580754322.813,509
1580754332.813,509
1580754342.811,509
1580754352.811,509
1580754362.811,509
1580754372.811,509
1580754382.811,509
1580754392.811,509
1580754402.811,510
1580754412.811,510
1580754422.811,510
1580754432.811,510
1580754442.811,510
1580754452.811,510
1580754462.811,510
1580754472.811,510
1580754482.811,510
1580754492.811,511
1580754502.811,511
1580754512.811,511
1580754522.815,511
1580754532.811,511
1580754542.811,511
1580754552.811,511
1580754562.811,511
1580754572.811,511
1580754582.811,511
1580754592.814,511
1580754602.811,511
1580754612.811,511
1580754622.811,512
1580754632.811,512
1580754642.811,512
1580754652.815,512
1580754662.811,512
1580754672.811,512
1580754682.811,512
1580754692.811,512
1580754702.811,512
1580754712.811,512
1580754722.811,513
1580754732.814,513
1580754742.811,513
1580754752.811,513
1580754762.811,513
1580754772.811,513
1580754782.811,513
1580754792.811,513
1580754802.811,514
1580754812.811,514
1580754822.811,514
1580754832.811,514
1580754842.811,514
1580754852.811,514
1580754862.811,514
1580754872.811,514
1580754882.811,515
1580754892.811,515
1580754902.811,515
1580754912.811,515
1580754922.815,516
1580754932.811,516
1580754942.811,516
1580754952.815,516
1580754962.811,516
1580754972.811,516
1580754982.811,517
1580754992.811,517
1580755002.811,517
1580755012.811,517
1580755022.811,517
1580755032.811,517
1580755042.811,517
1580755052.811,517
1580755062.811,518
1580755072.811,518
1580755082.811,518
1580755092.811,518
