epoch,value
1580611687.167,0
1580611697.167,0
1580611707.167,11
1580611717.167,14
1580611727.167,18
1580611737.167,21
1580611747.167,22
1580611757.167,23
1580611767.167,24
1580611777.167,26
1580611787.167,33
1580611797.167,33
1580611807.167,33
1580611817.167,36
1580611827.167,36
1580611837.167,36
1580611847.167,38
1580611857.167,38
1580611867.167,38
1580611877.167,38
1580611887.167,38
1580611897.167,38
1580611907.167,39
1580611917.167,39
1580611927.167,40
1580611937.167,41
1580611947.167,41
1580611957.167,41
1580611967.167,41
1580611977.167,41
1580611987.167,41
1580611997.167,41
1580612007.167,41
1580612017.167,42
1580612027.167,42
1580612037.167,42
1580612047.167,42
1580612057.167,42
1580612067.167,42
1580612077.167,42
1580612087.167,42
1580612097.167,42
1580612107.167,42
1580612117.167,42
1580612127.167,42
1580612137.167,42
1580612147.167,42
1580612157.167,42
1580612167.167,42
1580612177.167,42
1580612187.167,42
1580612197.167,42
1580612207.167,42
1580612217.167,42
1580612227.167,42
1580612237.167,42
1580612247.167,42
1580612257.167,42
1580612267.167,42
1580612277.167,42
1580612287.167,42
1580612297.167,42
1580612307.167,42
1580612317.167,42
1580612327.167,42
1580612337.170,42
1580612347.167,42
1580612357.167,42
1580612367.167,42
1580612377.167,42
1580612387.170,42
1580612397.167,42
1580612407.167,42
1580612417.167,42
1580612427.167,42
1580612437.167,42
1580612447.167,42
1580612457.167,42
1580612467.167,42
1580612477.170,42
1580612487.167,42
1580612497.167,42
1580612507.167,42
1580612517.167,42
1580612527.167,42
1580612537.167,42
1580612547.167,42
1580612557.167,42
1580612567.167,42
1580612577.167,42
1580612587.167,43
1580612597.167,43
1580612607.167,43
1580612617.167,43
1580612627.168,43
1580612637.167,43
1580612647.167,43
1580612657.167,43
1580612667.167,43
1580612677.167,43
1580612687.167,43
1580612697.167,43
1580612707.167,43
1580612717.167,43
1580612727.167,43
1580612737.167,43
1580612747.167,43
1580612757.170,43
1580612767.167,43
1580612777.167,43
1580612787.173,43
1580612797.167,43
1580612807.167,43
1580612817.167,43
1580612827.167,43
1580612837.167,43
1580612847.167,43
1580612857.170,43
1580612867.167,43
1580612877.167,43
1580612887.167,43
1580612897.167,43
1580612907.167,43
1580612917.168,43
1580612927.167,43
1580612937.170,43
1580612947.167,43
1580612957.167,43
1580612967.167,43
1580612977.167,43
1580612987.167,43
1580612997.167,43
1580613007.167,43
1580613017.167,43
1580613027.167,43
1580613037.167,43
1580613047.167,43
1580613057.167,43
1580613067.167,43
1580613077.167,43
1580613087.167,43
1580613097.167,44
1580613107.167,44
1580613117.167,44
1580613127.167,44
1580613137.167,44
1580613147.167,44
1580613157.167,44
1580613167.167,44
1580613177.167,44
1580613187.167,44
1580613197.167,44
1580613207.167,44
1580613217.167,44
1580613227.167,44
1580613237.167,44
1580613247.167,44
1580613257.167,44
1580613267.167,44
1580613277.167,44
1580613287.169,44
1580613297.167,44
1580613307.167,44
1580613317.167,44
1580613327.167,45
1580613337.167,45
1580613347.167,45
1580613357.167,45
1580613367.167,45
1580613377.167,45
1580613387.167,45
1580613397.167,45
1580613407.167,45
1580613417.167,45
1580613427.167,45
1580613437.167,46
1580613447.167,46
1580613457.167,46
1580613467.167,46
1580613477.167,46
1580613487.167,46
1580613497.167,46
1580613507.167,46
1580613517.167,46
1580613527.167,46
1580613537.167,46
1580613547.167,46
1580613557.167,46
1580613567.167,46
1580613577.167,46
1580613587.167,46
1580613597.167,46
1580613607.167,46
1580613617.167,46
1580613627.167,46
1580613637.167,46
1580613647.167,46
1580613657.167,46
1580613667.167,46
1580613677.167,46
1580613687.167,46
1580613697.167,46
1580613707.167,46
1580613717.167,46
1580613727.167,46
1580613737.167,46
1580613747.167,47
1580613757.167,47
1580613767.167,47
1580613777.167,47
1580613787.170,47
1580613797.167,47
1580613807.167,47
1580613817.170,47
1580613827.167,47
1580613837.167,47
1580613847.167,47
1580613857.167,47
1580613867.167,47
1580613877.167,47
1580613887.167,47
1580613897.167,47
1580613907.167,47
1580613917.167,47
1580613927.167,47
1580613937.167,47
1580613947.167,47
1580613957.167,47
1580613967.167,47
1580613977.167,47
1580613987.167,48
1580613997.167,48
1580614007.167,48
1580614017.167,48
1580614027.168,48
1580614037.167,48
1580614047.167,48
1580614057.167,48
1580614067.167,48
1580614077.167,48
1580614087.167,48
1580614097.167,48
1580614107.167,48
1580614117.167,48
1580614127.167,48
1580614137.167,48
1580614147.170,48
1580614157.167,48
1580614167.167,48
1580614177.167,48
1580614187.167,48
1580614197.167,48
1580614207.167,48
1580614217.167,48
1580614227.167,48
1580614237.167,48
1580614247.167,48
1580614257.167,48
1580614267.167,48
1580614277.167,48
1580614287.167,48
1580614297.167,48
1580614307.167,48
1580614317.167,48
1580614327.167,48
1580614337.167,48
1580614347.167,48
1580614357.167,48
1580614367.167,48
1580614377.167,48
1580614387.167,48
1580614397.167,48
1580614407.167,48
1580614417.167,48
1580614427.167,48
1580614437.167,48
1580614447.167,48
1580614457.167,48
1580614467.167,48
1580614477.167,48
1580614487.167,48
1580614497.167,48
1580614507.167,48
1580614517.167,48
1580614527.167,48
1580614537.167,48
1580614547.167,48
1580614557.167,48
1580614567.167,48
1580614577.167,48
1580614587.167,48
1580614597.167,48
1580614607.167,48
1580614617.167,48
1580614627.167,48
1580614637.167,48
1580614647.170,48
1580614657.167,48
1580614667.167,48
1580614677.167,48
1580614687.167,48
1580614697.167,48
1580614707.167,48
1580614717.167,48
1580614727.167,48
1580614737.167,48
1580614747.167,48
1580614757.167,48
1580614767.167,48
1580614777.167,49
1580614787.167,49
1580614797.167,49
1580614807.167,49
1580614817.167,49
1580614827.167,49
1580614837.167,49
1580614847.167,49
1580614857.167,49
1580614867.167,49
1580614877.167,49
1580614887.170,49
1580614897.167,49
1580614907.167,49
1580614917.167,49
1580614927.167,49
1580614937.167,49
1580614947.167,49
1580614957.167,49
1580614967.167,49
1580614977.167,49
1580614987.167,49
1580614997.167,49
1580615007.167,49
1580615017.167,49
1580615027.167,49
1580615037.167,49
1580615047.167,49
1580615057.167,49
1580615067.167,49
1580615077.167,49
1580615087.167,49
1580615097.167,49
1580615107.167,49
1580615117.167,49
1580615127.167,49
1580615137.168,49
1580615147.167,49
1580615157.167,49
1580615167.167,49
1580615177.167,50
1580615187.167,50
1580615197.167,50
1580615207.167,50
1580615217.167,50
1580615227.167,50
1580615237.167,50
1580615247.167,50
1580615257.167,50
1580615267.167,50
1580615277.167,50
1580615287.167,50
1580615297.167,50
1580615307.167,50
1580615317.167,50
1580615327.167,50
1580615337.167,50
1580615347.167,50
1580615357.167,50
1580615367.167,50
1580615377.167,50
1580615387.167,50
1580615397.170,50
1580615407.167,50
1580615417.167,50
1580615427.167,50
1580615437.167,50
1580615447.167,50
1580615457.167,50
1580615467.167,50
1580615477.167,50
1580615487.167,50
1580615497.170,50
1580615507.167,50
1580615517.167,50
1580615527.167,50
1580615537.167,50
1580615547.167,50
1580615557.167,50
1580615567.167,50
1580615577.167,50
1580615587.167,50
1580615597.167,50
1580615607.167,50
1580615617.167,51
1580615627.167,51
1580615637.167,51
1580615647.167,51
1580615657.167,51
1580615667.167,51
1580615677.167,51
1580615687.167,51
1580615697.167,51
1580615707.167,51
1580615717.167,51
1580615727.167,51
1580615737.167,51
1580615747.167,51
1580615757.167,51
1580615767.167,51
1580615777.167,51
1580615787.169,51
1580615797.167,51
1580615807.167,51
1580615817.167,51
1580615827.170,51
1580615837.167,51
1580615847.167,51
1580615857.167,51
1580615867.167,51
1580615877.167,51
1580615887.167,51
1580615897.167,51
1580615907.167,51
1580615917.167,51
1580615927.167,51
1580615937.167,51
1580615947.167,51
1580615957.167,51
1580615967.167,51
1580615977.167,51
1580615987.167,51
1580615997.167,51
1580616007.167,51
1580616017.167,51
1580616027.167,51
1580616037.167,51
1580616047.167,51
1580616057.167,51
1580616067.167,51
1580616077.167,52
1580616087.167,52
1580616097.167,52
1580616107.167,52
1580616117.168,52
1580616127.167,52
1580616137.167,52
1580616147.167,52
1580616157.167,52
1580616167.167,52
1580616177.167,52
1580616187.167,52
1580616197.167,52
1580616207.167,52
1580616217.167,52
1580616227.167,52
1580616237.167,52
1580616247.167,52
1580616257.167,52
1580616267.167,52
1580616277.167,52
1580616287.167,52
1580616297.167,52
1580616307.167,52
1580616317.167,52
1580616327.167,52
1580616337.167,52
1580616347.167,52
1580616357.167,52
1580616367.167,52
1580616377.167,52
1580616387.169,52
1580616397.167,52
1580616407.167,52
1580616417.167,52
1580616427.167,52
1580616437.167,52
1580616447.167,52
1580616457.167,52
1580616467.167,52
1580616477.167,52
1580616487.167,52
1580616497.167,52
1580616507.167,52
1580616517.167,52
1580616527.167,52
1580616537.169,52
1580616547.167,52
1580616557.167,52
1580616567.170,52
1580616577.167,52
1580616587.167,52
1580616597.167,52
1580616607.167,52
1580616617.169,52
1580616627.169,52
1580616637.167,52
1580616647.167,52
1580616657.167,52
1580616667.167,52
1580616677.167,52
1580616687.167,52
1580616697.167,52
1580616707.167,52
1580616717.167,52
1580616727.167,52
1580616737.167,52
1580616747.167,52
1580616757.167,52
1580616767.167,52
1580616777.167,52
1580616787.167,52
1580616797.167,52
1580616807.167,52
1580616817.167,52
1580616827.167,52
1580616837.167,52
1580616847.167,52
1580616857.167,52
1580616867.167,53
1580616877.167,53
1580616887.167,53
1580616897.167,53
1580616907.167,53
1580616917.167,53
1580616927.167,53
1580616937.167,53
1580616947.167,53
1580616957.167,53
1580616967.167,53
1580616977.167,53
1580616987.167,53
1580616997.167,53
1580617007.167,53
1580617017.167,53
1580617027.167,53
1580617037.167,53
1580617047.167,53
1580617057.167,53
1580617067.167,53
1580617077.167,53
1580617087.167,53
1580617097.167,53
1580617107.173,53
1580617117.169,53
1580617127.167,53
1580617137.167,53
1580617147.167,53
1580617157.167,53
1580617167.167,53
1580617177.167,53
1580617187.167,54
1580617197.167,54
1580617207.167,54
1580617217.167,54
1580617227.167,54
1580617237.167,54
1580617247.167,54
1580617257.170,54
1580617267.167,54
1580617277.167,54
1580617287.167,54
1580617297.167,54
1580617307.167,54
1580617317.167,54
1580617327.167,54
1580617337.167,54
1580617347.167,54
1580617357.167,54
1580617367.167,54
1580617377.167,54
1580617387.167,54
1580617397.170,54
1580617407.167,54
1580617417.167,54
1580617427.167,54
1580617437.167,54
1580617447.167,54
1580617457.168,54
1580617467.167,54
1580617477.167,54
1580617487.167,54
1580617497.167,54
1580617507.167,54
1580617517.167,54
1580617527.167,54
1580617537.167,54
1580617547.167,55
1580617557.167,55
1580617567.167,55
1580617577.167,55
1580617587.167,55
1580617597.167,55
1580617607.167,55
1580617617.167,55
1580617627.167,55
1580617637.167,55
1580617647.167,55
1580617657.167,55
1580617667.167,55
1580617677.167,55
1580617687.167,55
1580617697.167,55
1580617707.169,55
1580617717.167,55
1580617727.167,55
1580617737.167,55
1580617747.167,55
1580617757.167,55
1580617767.167,55
1580617777.167,56
1580617787.167,56
1580617797.169,56
1580617807.167,56
1580617817.167,56
1580617827.167,56
1580617837.167,56
1580617847.167,56
1580617857.167,56
1580617867.167,56
1580617877.167,56
1580617887.167,56
1580617897.167,56
1580617907.167,56
1580617917.167,56
1580617927.167,56
1580617937.167,56
1580617947.167,56
1580617957.167,56
1580617967.167,56
1580617977.167,56
1580617987.167,56
1580617997.168,56
1580618007.167,57
1580618017.167,57
1580618027.169,57
1580618037.167,57
1580618047.167,57
1580618057.167,57
1580618067.167,57
1580618077.170,57
1580618087.167,57
1580618097.167,57
1580618107.167,57
1580618117.167,57
1580618127.167,57
1580618137.167,57
1580618147.167,57
1580618157.167,57
1580618167.167,57
1580618177.167,57
1580618187.167,57
1580618197.167,57
1580618207.167,57
1580618217.167,57
1580618227.167,57
1580618237.167,57
1580618247.167,57
1580618257.167,57
1580618267.167,58
1580618277.167,58
1580618287.167,58
1580618297.167,58
1580618307.167,58
1580618317.167,58
1580618327.167,58
1580618337.167,58
1580618347.167,58
1580618357.167,58
1580618367.167,58
1580618377.167,58
1580618387.167,58
1580618397.167,58
1580618407.167,58
1580618417.167,58
1580618427.167,58
1580618437.167,58
1580618447.167,58
1580618457.167,58
1580618467.167,59
1580618477.167,59
1580618487.167,59
1580618497.167,59
1580618507.167,59
1580618517.167,59
1580618527.167,59
1580618537.167,59
1580618547.167,59
1580618557.167,59
1580618567.167,59
1580618577.167,59
1580618587.167,59
1580618597.167,59
1580618607.167,59
1580618617.167,59
1580618627.167,59
1580618637.167,60
1580618647.167,60
1580618657.167,60
1580618667.167,60
1580618677.167,60
1580618687.167,60
1580618697.167,60
1580618707.167,60
1580618717.167,60
1580618727.167,60
1580618737.167,60
1580618747.167,60
1580618757.167,60
1580618767.167,60
1580618777.167,60
1580618787.167,60
1580618797.167,60
1580618807.167,60
1580618817.167,60
1580618827.167,60
1580618837.167,60
1580618847.167,60
1580618857.167,60
1580618867.167,60
1580618877.167,60
1580618887.167,60
1580618897.167,60
1580618907.167,60
1580618917.167,60
1580618927.167,60
1580618937.167,60
1580618947.167,60
1580618957.167,60
1580618967.167,61
1580618977.167,61
1580618987.167,61
1580618997.167,61
1580619007.167,61
1580619017.167,61
1580619027.167,61
1580619037.167,61
1580619047.167,61
1580619057.167,61
1580619067.167,61
1580619077.167,61
1580619087.167,61
1580619097.167,61
1580619107.167,61
1580619117.167,61
1580619127.167,61
1580619137.167,61
1580619147.167,61
1580619157.167,61
1580619167.167,61
1580619177.167,61
1580619187.170,62
1580619197.167,62
1580619207.167,62
1580619217.167,62
1580619227.167,62
1580619237.167,62
1580619247.167,62
1580619257.167,62
1580619267.167,62
1580619277.167,62
1580619287.167,62
1580619297.167,62
1580619307.167,62
1580619317.167,62
1580619327.167,62
1580619337.167,62
1580619347.167,62
1580619357.167,62
1580619367.169,62
1580619377.167,62
1580619387.167,62
1580619397.167,62
1580619407.167,62
1580619417.167,62
1580619427.167,62
1580619437.167,62
1580619447.168,63
1580619457.167,63
1580619467.167,63
1580619477.167,63
1580619487.167,63
1580619497.167,63
1580619507.167,63
1580619517.167,63
1580619527.169,63
1580619537.167,63
1580619547.167,63
1580619557.167,63
1580619567.167,63
1580619577.167,63
1580619587.167,63
1580619597.167,63
1580619607.167,63
1580619617.167,63
1580619627.167,63
1580619637.167,63
1580619647.167,63
1580619657.167,63
1580619667.167,63
1580619677.167,63
1580619687.167,63
1580619697.167,63
1580619707.170,63
1580619717.167,63
1580619727.167,63
1580619737.167,64
1580619747.167,64
1580619757.167,64
1580619767.167,64
1580619777.167,64
1580619787.167,64
1580619797.167,64
1580619807.167,64
