epoch,value
1580476344.398,411686
1580476354.382,411688
1580476364.381,411688
1580476374.381,411689
1580476384.382,411690
1580476394.381,411690
1580476404.381,411690
1580476414.381,411691
1580476424.381,411691
1580476434.381,411691
1580476444.381,411692
1580476454.381,411692
1580476464.381,411692
1580476474.381,411692
1580476484.382,411692
1580476494.381,411693
1580476504.383,411694
1580476514.383,411694
1580476524.381,411694
1580476534.382,411694
1580476544.381,411694
1580476554.381,411694
1580476564.381,411694
1580476574.381,411695
1580476584.382,411695
1580476594.381,411696
1580476604.382,411696
1580476614.382,411697
1580476624.384,411697
1580476634.381,411697
1580476644.381,411697
1580476654.381,411697
1580476664.381,411697
1580476674.382,411698
1580476684.381,411698
1580476694.381,411698
1580476704.381,411698
1580476714.381,411699
1580476724.381,411699
1580476734.381,411699
1580476744.381,411700
1580476754.381,411701
1580476764.382,411701
1580476774.381,411702
1580476784.381,411703
1580476794.381,411703
1580476804.381,411704
1580476814.381,411706
1580476824.381,411706
1580476834.381,411707
1580476844.381,411707
1580476854.381,411707
1580476864.381,411708
1580476874.382,411708
1580476884.382,411708
1580476894.381,411708
1580476904.382,411708
1580476914.381,411709
1580476924.381,411709
1580476934.381,411709
1580476944.381,411709
1580476954.381,411710
1580476964.381,411711
1580476974.382,411712
1580476984.381,411712
1580476994.381,411712
1580477004.382,411712
1580477014.381,411713
1580477024.381,411713
1580477034.381,411713
1580477044.381,411713
1580477054.382,411714
1580477064.381,411715
1580477074.381,411715
1580477084.381,411715
1580477094.381,411717
1580477104.381,411717
1580477114.381,411717
1580477124.381,411717
1580477134.381,411718
1580477144.381,411720
1580477154.381,411720
1580477164.381,411722
1580477174.381,411723
1580477184.381,411724
1580477194.381,411724
1580477204.381,411724
1580477214.381,411724
1580477224.381,411724
1580477234.381,411724
1580477244.381,411724
1580477254.381,411725
1580477264.381,411725
1580477274.381,411726
1580477284.382,411726
1580477294.381,411727
1580477304.381,411728
1580477314.381,411728
1580477324.384,411728
1580477334.384,411729
1580477344.381,411729
1580477354.381,411730
1580477364.382,411730
1580477374.381,411731
1580477384.381,411731
1580477394.381,411731
1580477404.381,411732
1580477414.381,411734
1580477424.381,411734
1580477434.381,411736
1580477444.381,411736
1580477454.382,411736
1580477464.381,411738
1580477474.381,411738
1580477484.381,411739
1580477494.381,411740
1580477504.381,411740
1580477514.381,411742
1580477524.381,411742
1580477534.381,411742
1580477544.382,411743
1580477554.383,411745
1580477564.382,411745
1580477574.381,411745
1580477584.381,411746
1580477594.381,411746
1580477604.381,411746
1580477614.381,411746
1580477624.381,411747
1580477634.381,411747
1580477644.382,411748
1580477654.381,411748
1580477664.381,411748
1580477674.381,411748
1580477684.381,411748
1580477694.381,411748
1580477704.383,411748
1580477714.382,411750
1580477724.381,411750
1580477734.381,411750
1580477744.383,411750
1580477754.383,411752
1580477764.381,411752
1580477774.381,411752
1580477784.383,411752
1580477794.381,411754
1580477804.381,411754
1580477814.381,411756
1580477824.381,411756
1580477834.381,411758
1580477844.382,411759
1580477854.381,411759
1580477864.382,411760
1580477874.381,411761
1580477884.381,411762
1580477894.383,411762
1580477904.381,411763
