epoch,value
1579930291.831,0
1579930301.831,0
1579930311.831,0
1579930321.831,0
1579930331.831,1
1579930341.831,1
1579930351.831,3
1579930361.831,4
1579930371.831,5
1579930381.831,5
1579930391.831,6
1579930401.831,6
1579930411.831,11
1579930421.837,12
1579930431.831,12
1579930441.831,13
1579930451.831,15
1579930461.831,16
1579930471.831,16
1579930481.831,17
1579930491.831,18
1579930501.831,19
1579930511.831,20
1579930521.831,20
1579930531.831,21
1579930541.831,21
1579930551.831,21
1579930561.831,22
1579930571.831,23
1579930581.831,23
1579930591.831,24
1579930601.831,25
1579930611.831,26
1579930621.831,26
1579930631.834,26
1579930641.831,26
1579930651.831,26
1579930661.831,27
1579930671.831,27
1579930681.831,27
1579930691.831,27
1579930701.831,27
1579930711.831,27
1579930721.831,27
1579930731.831,27
1579930741.831,27
1579930751.831,27
1579930761.831,27
1579930771.831,27
1579930781.831,27
1579930791.831,27
1579930801.831,27
1579930811.831,27
1579930821.831,27
1579930831.831,27
1579930841.831,27
1579930851.831,27
1579930861.831,27
1579930871.831,27
1579930881.831,27
1579930891.831,28
1579930901.831,28
1579930911.831,28
1579930921.831,28
1579930931.831,28
1579930941.831,28
1579930951.831,28
1579930961.831,29
1579930971.831,29
1579930981.831,29
1579930991.831,30
1579931001.831,30
1579931011.831,30
1579931021.831,30
1579931031.831,30
1579931041.831,30
1579931051.831,30
1579931061.831,31
1579931071.831,31
1579931081.831,31
1579931091.831,31
1579931101.831,31
1579931111.831,31
1579931121.831,31
1579931131.831,32
1579931141.831,32
1579931151.831,32
1579931161.831,32
1579931171.831,32
1579931181.831,32
1579931191.831,32
1579931201.831,32
1579931211.831,32
1579931221.831,32
1579931231.831,32
1579931241.831,32
1579931251.831,32
1579931261.831,32
1579931271.831,32
1579931281.831,32
1579931291.831,33
1579931301.831,33
1579931311.837,33
1579931321.831,33
1579931331.831,33
1579931341.831,33
1579931351.831,33
1579931361.831,33
1579931371.831,33
1579931381.831,33
1579931391.831,33
1579931401.831,33
1579931411.831,33
1579931421.831,33
1579931431.831,33
1579931441.831,33
1579931451.831,33
1579931461.831,33
1579931471.831,33
1579931481.831,33
1579931491.831,33
1579931501.831,33
1579931511.831,33
1579931521.831,33
1579931531.831,33
1579931541.831,33
1579931551.836,33
1579931561.831,33
1579931581.831,33
1579931591.831,33
1579931601.831,34
1579931611.831,34
1579931621.831,34
1579931631.831,34
1579931641.833,34
1579931651.831,34
1579931661.831,34
1579931671.831,34
1579931681.831,34
1579931691.831,34
1579931701.831,34
1579931711.831,34
1579931721.831,34
1579931731.831,34
1579931741.831,34
1579931751.831,34
1579931761.831,34
1579931771.831,34
1579931781.831,34
1579931791.831,34
1579931801.831,34
1579931811.831,34
1579931821.831,34
1579931831.831,34
1579931841.831,34
1579931851.831,34
1579931861.831,34
1579931871.834,34
1579931881.831,34
1579931891.831,34
1579931901.831,35
1579931911.831,35
1579931921.831,35
1579931931.831,35
1579931941.831,35
1579931951.831,35
1579931961.831,35
1579931971.831,35
1579931981.831,35
1579931991.831,35
1579932001.831,35
1579932011.831,35
1579932021.831,35
1579932031.831,35
1579932041.831,35
1579932051.831,35
1579932061.831,35
1579932071.831,35
1579932081.831,35
1579932091.831,35
1579932101.831,35
1579932111.831,35
1579932121.833,35
1579932131.831,35
1579932141.831,35
1579932151.831,36
1579932161.831,36
1579932171.831,36
1579932181.831,36
1579932191.831,36
1579932201.832,36
1579932211.831,36
1579932221.831,36
1579932231.831,36
1579932241.831,36
1579932251.831,36
1579932261.831,36
1579932271.831,36
1579932281.831,36
1579932291.831,36
1579932301.831,36
1579932311.831,36
1579932321.831,36
1579932331.831,36
1579932341.831,36
1579932351.831,36
1579932361.831,36
1579932371.831,36
1579932381.831,36
1579932391.831,36
1579932401.831,36
1579932411.831,36
1579932421.831,36
1579932431.831,36
1579932441.831,36
1579932451.831,36
1579932461.831,36
1579932471.831,36
1579932481.831,37
1579932491.831,37
1579932501.831,37
1579932511.831,37
1579932521.831,37
1579932531.831,37
1579932541.831,37
1579932551.831,37
1579932561.831,37
1579932571.831,37
1579932581.831,37
1579932591.831,37
1579932601.831,37
1579932611.831,37
1579932621.831,37
1579932631.831,37
1579932641.831,37
1579932651.831,37
1579932661.831,37
1579932671.831,38
1579932681.831,38
1579932691.831,38
1579932701.831,38
1579932711.831,38
1579932721.831,38
1579932731.831,38
1579932741.831,38
1579932751.831,38
1579932761.831,38
1579932771.831,38
1579932781.831,38
1579932791.831,38
1579932801.831,39
1579932811.831,39
1579932821.831,39
1579932831.831,39
1579932841.831,39
1579932851.831,39
1579932861.831,39
1579932871.831,39
1579932881.831,39
1579932891.831,39
1579932901.831,39
1579932911.837,39
1579932921.831,39
1579932931.831,39
1579932941.831,39
1579932951.831,39
1579932961.831,40
1579932971.831,40
1579932981.831,40
1579932991.831,40
1579933001.831,40
1579933011.831,40
1579933021.831,40
