epoch,value
1579943714.060,0
1579943724.060,0
1579943734.060,0
1579943744.060,0
1579943754.060,1
1579943764.060,2
1579943774.060,2
1579943784.060,3
1579943794.060,4
1579943804.060,5
1579943814.060,26
1579943824.064,27
1579943834.060,27
1579943844.060,47
1579943854.060,48
1579943864.060,48
1579943874.060,49
1579943884.060,50
1579943894.060,51
1579943904.060,53
1579943914.060,55
1579943924.060,56
1579943934.060,56
1579943944.060,56
1579943954.060,56
1579943964.060,56
1579943974.060,56
1579943984.060,56
1579943994.060,56
1579944004.060,56
1579944014.060,56
1579944024.060,56
1579944034.060,56
1579944044.060,56
1579944054.060,56
1579944064.060,56
1579944074.060,56
1579944084.060,56
1579944094.060,56
1579944104.060,56
1579944114.060,56
1579944124.060,56
1579944134.060,56
1579944144.060,56
1579944154.060,56
1579944164.060,56
1579944174.060,56
1579944184.060,56
1579944194.060,56
1579944204.060,56
1579944214.060,56
1579944224.060,56
1579944234.060,56
1579944244.060,56
1579944254.060,56
1579944264.060,56
1579944274.060,56
1579944284.060,56
1579944294.060,56
1579944304.060,56
1579944314.060,56
1579944324.060,56
1579944334.060,56
1579944344.060,56
1579944354.060,56
1579944364.060,57
1579944374.060,57
1579944384.060,57
1579944394.060,57
1579944404.060,57
1579944414.060,57
1579944424.060,57
1579944434.060,57
1579944444.060,57
1579944454.061,57
1579944464.060,57
1579944474.060,57
1579944484.060,57
1579944494.060,57
1579944504.060,57
1579944514.060,57
1579944524.060,57
1579944534.060,57
1579944544.060,57
1579944554.060,57
1579944564.060,57
1579944574.060,57
1579944584.060,57
1579944594.060,57
1579944604.060,57
1579944614.060,57
1579944624.060,57
1579944634.060,57
1579944644.060,57
1579944654.060,57
1579944664.060,57
1579944674.060,57
1579944684.060,57
1579944694.060,57
1579944704.060,57
1579944714.060,57
1579944724.060,57
1579944734.060,57
1579944744.060,57
1579944754.060,57
1579944764.060,57
1579944774.060,57
1579944784.060,57
1579944794.060,57
1579944804.060,57
1579944814.060,57
1579944824.060,57
1579944834.060,57
1579944844.060,57
1579944854.060,57
1579944864.060,57
1579944874.060,57
1579944884.060,57
1579944894.060,57
1579944904.060,57
1579944914.060,57
1579944924.060,57
1579944934.060,57
1579944944.060,57
1579944954.060,57
1579944964.060,57
1579944974.060,57
1579944984.060,57
1579944994.060,57
1579945004.060,57
1579945014.060,58
1579945024.060,58
1579945034.060,58
1579945044.060,58
1579945054.060,58
1579945064.060,58
1579945074.060,58
1579945084.060,58
1579945094.060,58
1579945104.060,58
1579945114.060,58
1579945124.060,58
1579945134.060,58
1579945144.060,58
1579945154.061,58
1579945164.060,58
1579945174.060,58
1579945184.060,58
1579945194.060,58
1579945204.060,58
1579945214.060,58
1579945224.060,58
1579945234.060,58
1579945244.060,58
1579945254.060,58
1579945264.060,58
1579945274.061,58
1579945284.060,58
1579945294.060,58
1579945304.060,58
1579945314.060,58
1579945324.060,58
1579945334.060,58
1579945344.060,58
1579945354.060,58
1579945364.060,58
1579945374.060,58
1579945384.060,58
1579945394.060,58
1579945404.060,58
1579945414.060,58
1579945424.060,58
1579945434.060,58
1579945444.060,58
1579945454.060,58
1579945464.060,58
1579945474.060,58
1579945484.060,58
1579945494.060,58
1579945504.060,58
1579945514.060,58
1579945524.060,58
1579945534.060,58
1579945544.060,58
1579945554.060,58
1579945564.060,58
1579945574.060,58
1579945584.060,58
1579945594.060,58
1579945604.060,58
1579945614.060,58
1579945624.060,58
1579945634.060,58
1579945644.060,58
1579945654.060,58
1579945664.060,59
1579945674.060,59
1579945684.060,59
1579945694.060,59
1579945704.060,59
1579945714.060,59
1579945724.060,59
1579945734.060,59
1579945744.060,59
1579945754.060,59
1579945764.060,59
1579945774.060,59
1579945784.060,59
1579945794.060,59
1579945804.060,59
1579945814.060,59
1579945824.060,59
1579945834.060,59
1579945844.060,59
1579945854.060,59
1579945864.060,59
1579945874.060,59
1579945884.060,59
1579945894.060,59
1579945904.060,59
1579945914.060,59
1579945924.060,59
1579945934.060,59
1579945944.060,59
1579945954.060,59
1579945964.060,59
1579945974.060,59
1579945984.061,59
1579945994.060,59
1579946004.060,59
1579946014.060,59
1579946024.060,59
1579946034.060,59
1579946044.060,59
1579946054.060,59
1579946064.060,59
1579946074.060,59
1579946084.060,59
1579946094.060,59
1579946104.060,59
1579946114.060,59
1579946124.060,59
1579946134.060,59
1579946144.060,59
1579946154.060,59
1579946164.060,59
1579946174.060,59
1579946184.060,59
1579946194.060,59
1579946204.060,59
1579946214.060,59
1579946224.060,59
1579946234.060,59
1579946244.060,59
1579946254.060,59
1579946264.060,59
1579946274.060,59
1579946284.060,59
1579946294.060,59
1579946304.060,59
1579946314.060,59
1579946324.060,59
