epoch,value
1580603322.048,0
1580603332.048,0
1580603342.048,0
1580603352.057,0
1580603362.048,0
1580603372.048,0
1580603382.048,0
1580603392.048,0
1580603402.048,0
1580603412.048,0
1580603422.048,0
1580603432.048,0
1580603442.048,0
1580603452.048,0
1580603462.048,0
1580603472.049,0
1580603482.048,0
1580603492.048,0
1580603502.048,0
1580603512.048,0
1580603522.048,0
1580603532.048,0
1580603542.048,0
1580603562.048,0
1580603572.048,0
1580603582.048,0
1580603592.048,0
1580603602.048,0
1580603612.048,0
1580603622.048,0
1580603632.048,0
1580603642.048,0
1580603652.048,0
1580603662.048,0
1580603672.048,0
1580603682.048,0
1580603692.048,0
1580603702.048,0
1580603712.048,0
1580603722.048,0
1580603732.048,0
1580603742.048,0
1580603752.048,0
1580603762.048,0
1580603772.048,0
1580603782.048,0
1580603792.048,0
1580603802.048,0
1580603822.048,0
1580603832.048,0
1580603842.048,0
1580603852.048,0
1580603862.048,0
1580603872.048,0
1580603882.048,0
1580603892.048,0
1580603902.048,0
1580603912.048,0
1580603922.048,0
1580603932.048,0
1580603942.048,0
1580603952.048,0
1580603962.048,0
1580603972.048,0
1580603982.048,0
1580603992.048,0
1580604002.048,0
1580604012.048,0
1580604022.048,0
1580604032.048,0
1580604042.048,0
1580604052.048,0
1580604062.048,0
1580604072.048,0
1580604082.048,0
1580604092.048,0
1580604102.048,0
1580604112.048,0
1580604122.048,0
1580604132.048,0
1580604142.048,0
1580604152.048,0
1580604162.048,0
1580604172.048,0
1580604182.048,0
1580604192.048,0
1580604202.048,0
1580604212.048,0
1580604222.048,0
1580604232.048,0
1580604242.048,0
1580604252.048,0
1580604262.048,0
1580604272.048,0
1580604282.048,0
1580604292.048,1
1580604302.048,1
1580604312.048,1
1580604322.048,1
1580604332.048,1
1580604342.048,1
1580604352.048,1
1580604362.048,1
1580604372.048,1
1580604382.048,1
1580604392.048,1
1580604402.048,1
1580604412.048,1
1580604422.048,1
1580604432.048,1
1580604442.048,1
1580604452.048,1
1580604462.048,1
1580604472.048,1
1580604482.048,1
1580604492.048,1
1580604502.048,1
1580604512.048,1
1580604522.048,1
1580604532.048,1
1580604542.048,1
1580604552.048,1
1580604562.048,1
1580604572.048,1
1580604582.048,1
1580604592.048,1
1580604602.048,1
1580604612.048,1
1580604622.048,1
1580604632.048,1
1580604642.048,1
1580604652.048,1
1580604662.048,1
1580604672.048,1
1580604682.048,1
1580604692.048,1
1580604702.048,1
1580604712.048,1
1580604722.048,1
1580604732.048,1
1580604742.048,1
1580604752.048,1
1580604762.048,1
1580604772.048,1
1580604782.048,1
1580604792.048,1
1580604802.048,1
1580604812.048,1
1580604822.048,1
1580604832.048,1
1580604842.048,1
1580604852.048,1
1580604862.048,1
1580604872.048,1
1580604882.048,1
1580604892.048,1
1580604902.048,1
1580604912.049,1
1580604922.048,1
1580604932.048,1
1580604942.048,1
1580604952.048,1
1580604962.048,1
1580604972.048,1
1580604982.048,1
1580604992.048,1
1580605002.048,1
1580605012.048,1
1580605022.048,1
1580605032.048,1
1580605042.048,1
1580605052.048,1
1580605062.048,1
1580605072.049,1
1580605082.048,1
1580605092.048,1
1580605102.048,1
1580605112.048,2
1580605122.048,2
1580605132.048,2
1580605142.048,2
1580605152.048,2
1580605162.048,2
1580605172.048,2
1580605182.048,2
1580605192.048,2
1580605202.048,2
1580605212.048,2
1580605222.048,2
1580605232.048,2
1580605242.048,2
1580605252.048,2
1580605262.048,2
1580605272.048,2
1580605282.049,2
1580605292.048,2
1580605302.048,2
1580605312.048,2
1580605322.048,2
1580605332.048,2
1580605342.048,2
1580605352.048,2
1580605362.048,2
1580605372.048,2
1580605382.048,2
1580605402.048,2
1580605412.048,2
1580605422.048,2
1580605432.048,2
1580605442.048,2
1580605452.048,2
1580605462.048,2
1580605472.048,2
1580605482.048,2
1580605492.048,2
1580605502.048,2
1580605512.048,2
1580605522.048,2
1580605532.048,2
1580605542.048,2
1580605552.048,2
1580605562.048,2
1580605572.048,2
1580605582.048,2
1580605592.048,2
1580605602.048,2
1580605612.048,2
1580605622.048,2
1580605632.048,2
1580605642.048,2
1580605652.048,2
1580605662.048,2
1580605672.048,2
1580605682.048,2
1580605692.048,2
1580605702.048,2
1580605712.048,2
1580605722.048,2
1580605732.049,2
1580605742.048,2
1580605752.048,2
1580605762.048,2
1580605772.048,2
1580605782.048,2
1580605792.048,2
1580605802.048,3
1580605812.048,3
1580605822.052,3
1580605832.048,3
1580605842.048,3
1580605852.048,3
1580605862.048,3
1580605872.048,3
1580605882.048,3
1580605892.048,3
1580605902.048,3
1580605912.048,3
1580605922.048,3
1580605932.048,3
1580605942.049,3
1580605952.048,3
1580605962.048,3
1580605972.048,3
1580605982.048,3
1580605992.048,3
1580606002.048,3
1580606012.048,3
1580606022.048,3
1580606032.048,3
1580606042.048,3
1580606052.048,3
1580606062.048,3
1580606072.048,3
1580606082.048,3
1580606092.048,3
1580606102.048,3
1580606112.048,3
1580606122.048,3
1580606132.048,3
1580606142.048,3
1580606152.048,3
1580606162.048,3
1580606172.048,3
1580606182.048,3
1580606192.048,3
1580606202.048,3
1580606212.048,3
1580606222.048,3
1580606232.048,3
1580606242.048,3
1580606252.048,3
1580606262.048,3
1580606272.048,3
1580606282.048,3
1580606292.048,3
1580606302.048,3
1580606312.048,3
1580606322.048,3
1580606332.048,3
1580606342.048,3
1580606352.048,3
1580606362.048,3
1580606372.048,3
1580606382.048,3
1580606392.048,3
1580606402.048,3
1580606412.048,3
1580606422.048,3
1580606432.048,3
1580606442.048,3
1580606452.049,3
1580606462.048,3
1580606472.048,3
1580606482.048,3
1580606492.056,3
1580606502.048,3
1580606512.048,3
1580606522.048,3
1580606532.048,3
1580606542.048,3
1580606552.048,3
1580606562.048,3
1580606572.048,3
1580606582.048,3
1580606592.048,3
1580606602.048,3
1580606612.048,3
1580606622.048,3
1580606632.048,3
1580606642.048,3
1580606652.048,3
1580606662.048,3
1580606672.048,3
1580606682.048,3
1580606692.048,3
1580606702.048,3
1580606712.048,3
1580606722.048,3
1580606732.048,3
1580606742.048,3
1580606752.048,3
1580606762.048,3
1580606772.048,3
1580606782.048,3
1580606792.048,3
1580606802.048,3
1580606812.048,4
1580606822.048,4
1580606832.048,4
1580606842.048,4
1580606852.048,4
1580606862.048,4
1580606872.048,4
1580606882.048,4
1580606892.048,4
1580606902.048,4
1580606912.048,4
1580606922.048,4
1580606932.048,4
1580606952.048,4
1580606962.048,4
1580606972.048,4
1580606982.048,4
1580606992.048,4
1580607002.048,4
1580607012.048,4
1580607022.048,4
1580607032.048,4
1580607042.048,4
1580607052.048,4
1580607062.048,4
1580607072.048,4
1580607082.048,4
1580607092.048,4
1580607102.048,4
1580607112.048,4
1580607122.048,4
1580607132.048,4
1580607142.048,4
1580607152.048,4
1580607162.048,4
1580607172.048,4
1580607182.048,4
1580607192.048,4
1580607202.048,4
1580607212.048,4
1580607222.048,4
1580607232.048,4
1580607242.048,4
1580607252.048,4
1580607262.048,4
1580607272.048,4
1580607282.048,4
1580607292.048,4
1580607302.048,4
1580607312.048,4
1580607322.048,4
1580607332.048,4
1580607342.048,4
1580607352.048,4
1580607362.048,4
1580607372.048,4
1580607382.048,4
1580607392.049,4
1580607402.048,4
1580607412.048,4
1580607422.048,4
1580607432.048,4
1580607442.048,4
1580607452.048,4
1580607462.048,4
1580607472.048,4
1580607482.048,4
1580607492.048,4
1580607502.048,4
1580607512.048,4
1580607522.048,4
1580607532.048,4
1580607542.048,4
1580607552.048,4
1580607562.048,4
1580607572.048,4
1580607582.048,4
1580607592.048,4
1580607602.048,4
1580607612.048,4
1580607622.048,4
1580607632.048,4
1580607642.049,4
1580607652.048,4
1580607662.048,4
1580607672.048,4
1580607682.048,4
1580607692.048,4
1580607702.048,4
1580607712.048,4
1580607722.048,4
1580607732.048,4
1580607742.048,4
1580607752.048,4
1580607762.048,4
1580607772.048,4
1580607782.048,4
1580607792.048,4
1580607802.049,4
1580607812.048,5
1580607822.048,5
1580607832.048,5
1580607842.048,5
1580607852.048,5
1580607862.048,5
1580607872.048,5
1580607882.048,5
1580607892.048,5
1580607902.049,5
1580607912.048,5
1580607922.048,5
1580607932.048,5
1580607942.048,5
1580607952.048,5
1580607962.048,5
1580607972.048,5
1580607982.048,5
1580607992.048,5
1580608002.048,5
1580608012.048,5
1580608022.048,5
1580608032.048,5
1580608042.048,5
1580608052.048,5
1580608062.048,5
1580608072.048,5
1580608082.048,5
1580608092.048,5
1580608102.048,5
1580608112.048,5
1580608122.048,5
1580608132.048,5
1580608142.048,5
1580608152.048,5
1580608162.048,5
1580608172.048,5
1580608182.048,5
1580608192.048,5
1580608202.048,5
1580608212.048,5
1580608222.048,5
1580608232.048,5
1580608242.048,5
1580608252.048,5
1580608262.048,5
1580608272.048,5
1580608282.048,5
1580608292.048,5
1580608302.048,5
1580608312.048,5
1580608322.048,5
1580608332.048,5
1580608342.048,5
1580608352.048,5
1580608362.048,5
1580608372.049,5
1580608382.048,5
1580608392.048,5
1580608402.048,5
1580608412.048,5
1580608422.048,5
1580608432.049,5
1580608442.048,5
1580608452.048,5
1580608462.048,5
1580608472.048,5
1580608482.048,5
1580608492.048,5
1580608502.048,5
1580608512.048,5
1580608522.048,5
1580608532.048,5
1580608542.048,5
1580608562.048,5
1580608572.048,5
1580608582.048,5
1580608592.048,5
1580608602.048,5
1580608612.048,5
1580608622.048,5
1580608632.048,5
1580608642.048,5
1580608652.048,5
1580608662.048,5
1580608672.048,5
1580608682.048,5
1580608692.048,5
1580608702.048,5
1580608712.048,5
1580608722.048,5
1580608732.048,5
1580608742.048,5
1580608752.048,5
1580608762.048,5
1580608772.048,5
1580608782.048,6
1580608792.048,6
1580608802.048,6
1580608812.048,6
1580608822.048,6
1580608832.048,6
1580608842.048,6
1580608852.048,6
1580608862.048,6
1580608872.048,6
1580608882.048,6
1580608892.048,6
1580608902.048,6
1580608912.048,6
1580608922.048,6
1580608932.048,6
1580608942.048,6
1580608952.048,6
1580608962.048,6
1580608972.048,6
1580608982.048,6
1580608992.048,6
1580609002.049,6
1580609012.048,6
1580609022.048,6
1580609032.048,6
1580609042.048,6
1580609052.048,6
1580609062.048,6
1580609072.048,6
1580609082.048,6
1580609092.048,6
1580609102.048,6
1580609112.049,6
1580609122.048,6
1580609132.048,6
1580609142.048,6
1580609152.048,6
1580609162.048,6
1580609172.048,6
1580609182.048,6
1580609192.048,6
1580609202.048,6
1580609212.048,6
1580609222.048,6
1580609232.048,6
1580609242.048,6
1580609252.048,6
1580609262.048,6
1580609272.048,6
1580609282.048,6
1580609292.048,6
1580609302.048,6
1580609312.048,6
1580609322.048,6
1580609332.048,6
1580609342.048,6
1580609352.048,6
1580609362.048,7
1580609372.048,7
1580609382.048,7
1580609392.048,7
1580609402.048,7
1580609412.048,7
1580609422.048,7
1580609432.048,7
1580609442.048,7
1580609452.048,7
1580609462.048,7
1580609472.048,7
1580609482.048,7
1580609492.048,7
1580609502.048,7
1580609512.048,7
1580609522.048,7
1580609532.048,7
1580609542.048,7
1580609552.048,7
1580609562.048,7
1580609572.048,7
1580609582.048,7
1580609592.048,7
1580609602.048,7
1580609612.048,7
1580609622.048,7
1580609632.048,7
1580609642.048,7
1580609652.048,7
1580609662.054,7
1580609672.048,7
1580609692.048,7
1580609702.048,7
1580609712.048,7
1580609722.048,7
1580609732.048,7
1580609742.048,7
1580609752.048,7
1580609762.048,7
1580609772.048,7
1580609782.048,7
1580609792.048,7
1580609802.048,7
1580609812.048,7
1580609822.048,7
1580609832.048,7
1580609842.048,7
1580609852.048,7
1580609862.048,7
1580609872.048,7
1580609882.048,7
1580609892.048,7
1580609902.048,7
1580609912.048,7
1580609922.048,7
1580609942.048,7
1580609952.048,7
1580609962.048,7
1580609972.048,7
1580609982.048,7
1580609992.048,7
1580610002.048,7
1580610012.048,7
1580610022.048,7
1580610032.048,7
1580610042.048,7
1580610052.048,7
1580610062.048,7
1580610072.048,7
1580610082.048,7
1580610092.048,7
1580610102.048,7
1580610112.049,7
1580610122.048,7
1580610132.048,7
1580610142.048,7
1580610152.048,7
1580610162.048,7
1580610172.048,7
1580610182.049,7
1580610192.048,7
1580610202.048,7
1580610212.048,7
1580610222.048,7
1580610232.048,7
1580610242.048,7
1580610252.048,7
1580610262.048,7
1580610272.048,7
1580610282.048,7
1580610292.048,7
1580610302.048,7
1580610312.048,7
1580610322.048,7
1580610332.048,7
1580610342.048,7
1580610352.048,7
1580610362.048,7
1580610372.048,7
1580610382.048,7
1580610392.048,8
1580610402.048,8
1580610412.048,8
1580610422.048,8
1580610432.048,8
1580610442.048,8
1580610452.048,8
1580610462.048,8
1580610472.048,8
1580610482.048,8
1580610492.048,8
1580610502.048,8
1580610512.048,8
1580610522.048,8
1580610532.048,8
1580610542.048,8
1580610552.048,8
1580610562.048,8
1580610572.048,8
1580610582.048,8
1580610592.048,8
1580610602.048,8
1580610612.048,8
1580610622.048,8
1580610632.048,8
1580610642.048,8
1580610652.048,8
1580610662.048,8
1580610672.048,8
1580610682.048,8
1580610692.048,8
1580610702.048,8
1580610712.057,8
1580610722.048,8
1580610732.048,8
1580610742.048,8
1580610752.048,8
1580610762.048,8
1580610772.048,8
1580610782.048,8
1580610792.048,8
1580610802.048,8
1580610812.048,8
1580610822.048,8
1580610832.048,8
1580610842.054,8
1580610852.048,8
1580610862.048,8
1580610872.048,8
1580610882.048,8
1580610892.048,8
1580610902.048,8
1580610912.048,8
1580610922.048,8
1580610932.048,8
1580610942.048,8
1580610952.048,8
1580610962.048,8
1580610972.048,8
1580610982.048,8
1580610992.048,8
1580611002.048,8
1580611012.048,8
1580611022.048,8
1580611032.048,8
1580611042.048,8
1580611052.048,8
1580611062.048,8
1580611072.048,8
1580611082.053,8
1580611092.048,8
1580611102.048,8
1580611112.048,8
1580611122.048,8
1580611132.048,8
1580611142.048,8
1580611152.048,8
1580611162.048,8
1580611172.048,8
1580611182.048,8
1580611192.048,8
1580611202.048,8
1580611212.048,8
1580611222.048,8
1580611232.048,8
1580611242.048,8
1580611252.048,9
1580611262.048,9
1580611272.048,9
1580611282.048,9
1580611292.048,9
1580611302.048,9
1580611312.048,9
1580611322.048,9
1580611332.048,9
1580611342.048,9
1580611352.048,9
1580611362.048,9
1580611372.048,9
1580611382.048,9
1580611392.048,9
1580611402.048,9
1580611412.048,9
1580611422.048,9
1580611432.048,9
1580611442.048,9
1580611452.048,9
