epoch,value
1580335303.251,324561
1580335313.234,324562
1580335323.233,324562
1580335333.235,324562
1580335343.233,324563
1580335353.232,324563
1580335363.233,324564
1580335373.233,324565
1580335383.234,324567
1580335393.233,324567
1580335403.232,324567
1580335413.233,324567
1580335423.233,324567
1580335433.233,324567
1580335443.233,324569
1580335453.233,324570
1580335463.233,324570
1580335473.233,324570
1580335483.236,324570
1580335493.233,324570
1580335503.233,324570
1580335513.233,324570
1580335523.232,324571
1580335533.235,324571
1580335543.232,324571
1580335553.233,324572
1580335563.232,324573
1580335573.232,324573
1580335583.233,324573
1580335593.235,324573
1580335603.232,324573
1580335613.232,324573
1580335623.233,324573
1580335633.232,324573
1580335643.233,324573
1580335653.232,324573
1580335663.233,324573
1580335673.233,324573
1580335683.232,324574
1580335693.233,324574
1580335703.235,324574
1580335713.233,324574
1580335723.233,324574
1580335733.232,324575
1580335743.236,324576
1580335753.232,324576
1580335763.232,324577
1580335773.233,324577
1580335783.233,324577
1580335793.235,324577
1580335803.232,324578
1580335813.232,324580
1580335823.233,324581
1580335833.235,324581
1580335843.232,324582
1580335853.232,324582
1580335863.233,324584
1580335873.234,324584
1580335883.233,324584
1580335893.232,324586
1580335903.232,324586
1580335913.233,324587
1580335923.232,324588
1580335933.233,324589
1580335943.233,324590
1580335953.232,324590
1580335963.232,324591
1580335973.233,324592
1580335983.232,324593
1580335993.232,324594
1580336003.233,324594
1580336013.233,324594
1580336023.232,324596
1580336033.233,324596
1580336043.232,324598
1580336053.232,324598
1580336063.232,324599
1580336073.232,324599
1580336083.236,324600
1580336093.236,324600
1580336103.232,324601
1580336113.232,324603
1580336123.232,324603
1580336133.232,324603
1580336143.232,324604
1580336153.233,324604
1580336163.233,324604
1580336173.233,324605
1580336183.232,324606
1580336193.233,324607
1580336203.233,324608
1580336213.232,324609
1580336223.232,324610
1580336233.232,324610
1580336243.233,324610
1580336253.232,324611
1580336263.232,324611
1580336273.233,324611
1580336283.234,324611
1580336293.234,324611
1580336303.233,324611
1580336313.233,324611
1580336323.233,324612
1580336333.233,324613
1580336343.233,324615
1580336353.233,324616
1580336363.232,324618
1580336373.234,324618
1580336383.232,324620
1580336393.233,324620
1580336403.234,324620
1580336413.234,324620
1580336423.233,324621
1580336433.232,324621
1580336443.232,324621
1580336453.233,324622
1580336463.232,324622
1580336473.232,324622
1580336483.232,324622
1580336493.232,324622
1580336503.232,324622
1580336513.232,324623
1580336523.233,324623
1580336533.232,324623
1580336543.233,324624
1580336553.235,324625
1580336563.232,324626
1580336573.233,324626
1580336583.233,324626
1580336593.232,324626
1580336603.233,324626
1580336613.233,324626
1580336623.232,324627
1580336633.233,324628
1580336643.232,324628
1580336653.232,324630
1580336663.232,324630
1580336673.232,324630
1580336683.233,324630
1580336693.234,324630
1580336703.232,324630
1580336713.234,324630
1580336723.232,324632
1580336733.233,324632
1580336743.233,324632
1580336753.233,324632
1580336763.235,324632
1580336773.232,324632
1580336783.233,324632
1580336793.236,324633
1580336803.234,324634
1580336813.236,324634
1580336823.233,324634
1580336833.232,324635
1580336843.234,324636
1580336853.232,324637
1580336863.233,324638
1580336873.232,324639
1580336883.232,324640
1580336893.232,324640
1580336903.232,324642
1580336913.232,324642
1580336923.232,324643
1580336933.233,324644
1580336943.233,324645
1580336953.232,324646
1580336963.232,324646
1580336973.232,324646
1580336983.233,324648
1580336993.232,324648
1580337003.232,324649
1580337013.233,324649
1580337023.233,324651
1580337033.234,324651
1580337043.233,324651
1580337053.233,324652
1580337063.232,324653
1580337073.233,324654
1580337083.233,324655
1580337093.233,324655
1580337103.232,324657
1580337113.234,324660
1580337123.233,324662
1580337133.232,324662
1580337143.233,324664
1580337153.232,324664
1580337163.233,324664
1580337173.233,324665
1580337183.235,324666
1580337193.233,324666
1580337203.232,324666
1580337213.233,324666
1580337223.233,324667
1580337233.236,324667
1580337243.235,324669
1580337253.232,324669
1580337263.233,324670
1580337273.232,324671
1580337283.232,324671
1580337293.233,324671
1580337303.233,324672
1580337313.233,324672
1580337323.233,324673
1580337333.233,324674
1580337343.234,324675
1580337353.233,324676
1580337363.232,324677
1580337373.233,324677
1580337383.234,324677
1580337393.234,324678
1580337403.233,324680
1580337413.232,324681
1580337423.233,324682
1580337433.232,324683
1580337443.233,324684
1580337453.232,324684
1580337463.233,324684
1580337473.233,324684
1580337483.232,324684
1580337493.233,324684
1580337503.233,324685
1580337513.232,324685
1580337523.234,324685
1580337533.234,324685
1580337543.236,324685
1580337553.233,324685
1580337563.235,324685
1580337573.233,324685
1580337583.235,324685
1580337593.235,324686
1580337603.233,324687
1580337613.233,324687
1580337623.233,324687
1580337633.233,324688
1580337643.234,324688
1580337653.232,324689
1580337663.232,324690
1580337673.232,324692
1580337683.232,324694
1580337693.233,324694
1580337703.232,324694
1580337713.232,324694
1580337723.232,324695
1580337733.233,324695
1580337743.232,324696
1580337753.233,324697
1580337763.233,324698
1580337773.232,324698
1580337783.233,324699
1580337793.233,324699
1580337803.232,324700
1580337813.233,324700
1580337823.233,324700
1580337833.233,324702
1580337843.233,324702
1580337853.232,324703
1580337863.232,324703
1580337873.233,324704
1580337883.233,324704
1580337893.232,324704
1580337903.232,324704
1580337913.233,324705
1580337923.232,324705
1580337933.232,324705
1580337943.232,324705
1580337953.232,324705
1580337963.233,324706
1580337973.233,324706
1580337983.233,324707
1580337993.232,324707
1580338003.233,324708
1580338013.233,324708
1580338023.233,324708
1580338033.232,324709
1580338043.233,324709
1580338053.233,324709
1580338063.236,324709
1580338073.234,324709
1580338083.233,324709
1580338093.232,324710
1580338103.232,324710
1580338113.232,324710
1580338123.232,324710
1580338133.232,324711
1580338143.232,324714
1580338153.233,324714
1580338163.235,324714
1580338173.233,324714
1580338183.233,324714
1580338193.232,324717
1580338203.233,324717
1580338213.232,324717
1580338223.233,324717
1580338233.233,324717
1580338243.233,324718
1580338253.233,324718
1580338263.232,324719
1580338273.234,324719
1580338283.233,324720
1580338293.233,324721
1580338303.232,324722
1580338313.235,324722
1580338323.232,324723
1580338333.233,324725
1580338343.233,324725
1580338353.233,324726
1580338363.233,324726
1580338373.232,324726
1580338383.234,324726
1580338393.233,324726
1580338403.233,324727
1580338413.234,324728
1580338423.234,324728
1580338433.232,324728
1580338443.233,324728
1580338453.233,324728
1580338463.233,324729
1580338473.232,324730
1580338483.232,324731
1580338493.233,324731
1580338503.233,324731
1580338513.232,324732
1580338523.233,324732
1580338533.233,324732
1580338543.233,324732
1580338553.232,324733
1580338563.234,324734
1580338573.233,324735
1580338583.233,324736
1580338593.234,324736
1580338603.233,324738
1580338613.233,324739
1580338623.233,324742
1580338633.232,324742
1580338643.233,324744
1580338653.233,324744
1580338663.232,324745
1580338673.233,324746
1580338683.233,324748
1580338693.233,324748
1580338703.232,324748
1580338713.233,324749
1580338723.233,324749
1580338733.233,324749
1580338743.233,324750
1580338753.233,324751
1580338763.232,324752
1580338773.233,324752
1580338783.233,324752
1580338793.234,324752
