epoch,value
1580338803.232,324752
1580338813.233,324753
1580338823.236,324754
1580338833.232,324754
1580338843.232,324756
1580338853.233,324756
1580338863.232,324756
1580338873.233,324757
1580338883.233,324758
1580338893.233,324759
1580338903.235,324759
1580338913.232,324762
1580338923.232,324762
1580338933.232,324762
1580338943.233,324762
1580338953.233,324763
1580338963.233,324763
1580338973.232,324763
1580338983.232,324765
1580338993.232,324766
1580339003.233,324766
1580339013.233,324770
1580339023.236,324770
1580339033.232,324771
1580339043.233,324771
1580339053.234,324772
1580339063.232,324772
1580339073.233,324773
1580339083.234,324773
1580339093.234,324773
1580339103.232,324773
1580339113.232,324773
1580339123.233,324773
1580339133.233,324774
1580339143.233,324774
1580339153.232,324775
1580339163.232,324775
1580339173.233,324775
1580339183.233,324775
1580339193.233,324775
1580339203.233,324776
1580339213.233,324777
1580339223.232,324777
1580339233.236,324778
1580339243.233,324779
1580339253.232,324779
1580339263.232,324780
1580339273.232,324780
1580339283.232,324780
1580339293.232,324782
1580339303.235,324782
1580339313.232,324783
1580339323.232,324783
1580339333.233,324783
1580339343.233,324784
1580339353.233,324784
1580339363.233,324784
1580339373.232,324784
1580339383.232,324784
1580339393.234,324784
1580339403.233,324786
1580339413.234,324786
1580339423.234,324786
1580339433.233,324786
1580339443.233,324788
1580339453.233,324789
1580339463.233,324790
1580339473.233,324790
1580339483.232,324790
1580339493.232,324790
1580339503.232,324790
1580339513.232,324790
1580339523.232,324791
1580339533.233,324791
1580339543.232,324792
1580339553.233,324793
1580339563.232,324793
1580339573.234,324793
1580339583.233,324794
1580339593.233,324795
1580339603.234,324796
1580339613.232,324796
1580339623.233,324797
1580339633.232,324797
1580339643.232,324798
1580339653.233,324798
1580339663.233,324799
1580339673.232,324800
1580339683.233,324800
1580339693.234,324802
1580339703.232,324802
1580339713.232,324802
1580339723.233,324802
1580339733.233,324802
1580339743.232,324802
1580339753.232,324803
1580339763.234,324803
1580339773.233,324803
1580339783.233,324804
1580339793.234,324804
1580339803.232,324806
1580339813.234,324806
1580339823.233,324806
1580339833.232,324806
1580339843.233,324806
1580339853.232,324806
1580339863.233,324807
1580339873.232,324807
1580339883.233,324807
1580339893.232,324807
1580339903.233,324808
1580339913.232,324809
1580339923.233,324809
1580339933.233,324810
1580339943.233,324811
1580339953.233,324811
1580339963.233,324811
1580339973.232,324811
1580339983.234,324811
1580339993.232,324812
1580340003.232,324812
1580340013.232,324812
1580340023.232,324813
1580340033.233,324816
1580340043.232,324816
1580340053.232,324817
1580340063.233,324817
1580340073.233,324817
1580340083.234,324818
1580340093.234,324818
1580340103.232,324819
1580340113.232,324819
1580340123.233,324820
1580340133.235,324822
1580340143.233,324824
1580340153.232,324824
1580340163.235,324824
1580340173.233,324824
1580340183.234,324824
1580340193.232,324825
1580340203.233,324825
1580340213.232,324826
1580340223.233,324826
1580340233.233,324827
1580340243.233,324828
1580340253.232,324829
1580340263.232,324830
1580340273.233,324831
1580340283.233,324831
1580340293.233,324832
1580340303.232,324833
1580340313.232,324833
1580340323.232,324834
1580340333.233,324834
1580340343.233,324834
1580340353.233,324834
1580340363.233,324836
1580340373.233,324836
1580340383.235,324838
1580340393.233,324838
1580340403.232,324838
1580340413.233,324838
1580340423.233,324838
1580340433.233,324839
1580340443.233,324840
1580340453.233,324840
1580340463.233,324840
1580340473.236,324840
1580340483.233,324840
1580340493.233,324840
1580340503.233,324840
1580340513.233,324842
1580340523.233,324842
1580340533.233,324842
1580340543.233,324843
1580340553.233,324843
1580340563.233,324844
1580340573.234,324844
1580340583.232,324844
1580340593.236,324844
1580340603.233,324844
1580340613.233,324845
1580340623.233,324845
1580340633.233,324846
1580340643.233,324846
1580340653.233,324846
1580340663.235,324847
1580340673.233,324848
1580340683.234,324849
1580340693.233,324849
1580340703.233,324850
1580340713.233,324850
1580340723.234,324852
1580340733.233,324855
1580340743.235,324856
1580340753.233,324856
1580340763.233,324857
1580340773.233,324858
1580340783.232,324859
1580340793.233,324859
1580340803.233,324860
1580340813.233,324861
1580340823.233,324861
1580340833.233,324862
1580340843.233,324862
1580340853.233,324862
1580340863.233,324862
1580340873.235,324862
1580340883.233,324862
1580340893.236,324862
1580340903.233,324863
1580340913.234,324864
1580340923.233,324864
1580340933.232,324864
1580340943.233,324864
1580340953.233,324865
1580340963.235,324866
1580340973.234,324866
1580340983.234,324867
1580340993.233,324868
1580341003.233,324868
1580341013.234,324868
1580341023.233,324868
1580341033.233,324868
1580341043.235,324869
1580341053.232,324870
1580341063.232,324870
1580341073.233,324870
1580341083.233,324872
1580341093.233,324872
1580341103.233,324872
1580341113.233,324872
1580341123.232,324873
1580341133.233,324874
1580341143.233,324874
1580341153.233,324874
1580341163.233,324875
1580341173.233,324876
1580341183.232,324876
1580341193.233,324876
1580341203.234,324877
1580341213.237,324877
1580341223.233,324878
1580341233.233,324880
1580341243.233,324880
1580341253.233,324881
1580341263.233,324881
1580341273.234,324881
1580341283.232,324881
1580341293.232,324882
1580341303.232,324882
1580341313.233,324882
1580341323.233,324882
1580341333.233,324882
1580341343.233,324882
1580341353.233,324882
1580341363.233,324883
1580341373.233,324883
1580341383.233,324884
1580341393.233,324885
1580341403.233,324885
1580341413.232,324885
1580341423.233,324886
1580341433.233,324886
1580341443.233,324886
1580341453.233,324888
1580341463.234,324888
1580341473.234,324888
1580341483.233,324888
1580341493.233,324888
1580341503.233,324888
1580341513.233,324889
1580341523.233,324889
1580341533.233,324889
1580341543.233,324889
1580341553.232,324889
1580341563.233,324889
1580341573.233,324891
1580341583.233,324891
1580341593.232,324891
1580341603.232,324891
1580341613.233,324892
1580341623.233,324892
1580341633.233,324893
1580341643.236,324893
1580341653.233,324894
1580341663.234,324894
1580341673.233,324894
1580341683.233,324894
1580341693.233,324894
1580341703.233,324894
1580341713.233,324895
1580341723.233,324895
1580341733.233,324895
1580341743.233,324896
1580341753.236,324896
1580341763.236,324896
1580341773.233,324896
1580341783.234,324896
1580341793.232,324896
1580341803.233,324896
1580341813.232,324896
1580341823.232,324897
1580341833.233,324897
1580341843.233,324897
1580341853.233,324898
1580341863.234,324898
1580341873.233,324898
1580341883.233,324898
1580341893.232,324898
1580341903.234,324898
1580341913.233,324898
1580341923.232,324898
1580341933.233,324898
1580341943.233,324898
1580341953.233,324899
1580341963.235,324899
1580341973.232,324899
1580341983.232,324899
1580341993.232,324899
1580342003.233,324900
1580342013.232,324900
1580342023.232,324900
1580342033.233,324900
1580342043.233,324900
1580342053.233,324900
1580342063.232,324902
1580342073.232,324903
1580342083.233,324904
1580342093.233,324905
1580342103.232,324905
1580342113.232,324906
1580342123.232,324906
1580342133.233,324906
1580342143.233,324906
1580342153.233,324908
1580342163.234,324908
1580342173.232,324908
1580342183.233,324909
1580342193.233,324910
1580342203.234,324910
1580342213.233,324911
1580342223.233,324911
1580342233.232,324912
1580342243.233,324914
1580342253.233,324914
1580342263.233,324915
1580342273.234,324915
1580342283.233,324916
1580342293.233,324916
1580342303.234,324916
1580342313.232,324917
1580342323.233,324917
1580342333.233,324917
1580342343.234,324917
1580342353.232,324918
1580342363.233,324918
1580342373.233,324918
1580342383.233,324920
1580342393.232,324920
1580342403.232,324920
1580342413.233,324921
1580342423.235,324922
1580342433.233,324922
1580342443.232,324922
1580342453.232,324923
1580342463.233,324923
1580342473.233,324924
1580342483.233,324924
1580342493.232,324924
1580342503.233,324925
1580342513.235,324925
1580342523.232,324926
1580342533.233,324926
1580342543.233,324926
1580342553.232,324927
1580342563.232,324927
1580342573.232,324927
1580342583.232,324927
1580342593.233,324928
1580342603.234,324928
1580342613.232,324928
1580342623.233,324928
1580342633.233,324928
1580342643.232,324930
1580342653.234,324930
1580342663.233,324930
1580342673.233,324930
1580342683.233,324930
1580342693.232,324931
1580342703.232,324931
1580342713.233,324931
1580342723.233,324932
1580342733.232,324934
1580342743.233,324934
1580342753.235,324935
1580342763.234,324935
1580342773.232,324935
1580342783.232,324936
1580342793.233,324936
1580342803.232,324936
1580342813.233,324936
1580342823.232,324937
1580342833.232,324937
1580342843.232,324938
1580342853.233,324939
1580342863.232,324940
