epoch,value
1580832557.462,457972
1580832567.445,457972
1580832577.442,457972
1580832587.442,457972
1580832597.443,457972
1580832607.442,457972
1580832617.442,457985
1580832627.443,458012
1580832637.442,458038
1580832647.442,458073
1580832657.442,458100
1580832667.442,458140
1580832677.442,458175
1580832687.442,458202
1580832697.442,458229
1580832707.442,458268
1580832717.442,458294
1580832727.444,458325
1580832737.442,458355
1580832747.442,458400
1580832757.443,458426
1580832767.443,458456
1580832777.442,458490
1580832787.444,458535
1580832797.442,458574
1580832807.442,458596
1580832817.442,458626
1580832827.443,458659
1580832837.442,458704
1580832847.442,458740
1580832857.442,458775
1580832867.442,458821
1580832877.442,458860
1580832887.442,458894
1580832897.442,458934
1580832907.442,458973
1580832917.442,459009
1580832927.442,459043
1580832937.444,459074
1580832947.442,459108
1580832957.442,459146
1580832967.442,459178
1580832977.443,459208
1580832987.442,459248
1580832997.442,459283
1580833007.444,459319
1580833017.442,459348
1580833027.442,459385
1580833037.442,459422
1580833047.442,459456
1580833057.442,459496
1580833067.443,459536
1580833077.443,459576
1580833087.443,459608
1580833097.443,459652
1580833107.442,459690
1580833117.442,459726
1580833127.442,459764
1580833137.444,459793
1580833147.442,459840
1580833157.442,459866
1580833167.444,459908
1580833177.442,459949
1580833187.442,459988
1580833197.444,460031
1580833207.442,460077
1580833217.442,460119
1580833227.443,460161
1580833237.442,460212
1580833247.442,460261
1580833257.442,460301
1580833267.442,460332
1580833277.443,460369
1580833287.442,460402
1580833297.442,460434
1580833307.442,460471
1580833317.442,460513
1580833327.442,460553
1580833337.443,460593
1580833347.442,460637
1580833357.443,460685
1580833367.443,460736
1580833377.445,460778
1580833387.443,460819
1580833397.442,460863
1580833407.442,460905
1580833417.442,460952
1580833427.443,461005
1580833437.442,461059
1580833447.444,461102
1580833457.443,461145
1580833467.443,461187
1580833477.442,461221
1580833487.442,461266
1580833497.442,461312
1580833507.443,461350
1580833517.442,461389
1580833527.445,461418
1580833537.442,461460
1580833547.442,461494
1580833557.442,461532
1580833567.442,461568
1580833577.442,461608
1580833587.443,461654
1580833597.442,461694
1580833607.442,461732
1580833617.442,461771
1580833627.442,461807
1580833637.442,461843
1580833647.442,461882
1580833657.442,461930
1580833667.442,461982
1580833677.442,462032
1580833687.442,462080
1580833697.442,462116
1580833707.442,462158
1580833717.442,462204
1580833727.442,462240
1580833737.442,462283
1580833747.442,462326
1580833757.442,462370
1580833767.442,462410
1580833777.442,462447
1580833787.442,462502
1580833797.443,462552
1580833807.443,462605
1580833817.444,462657
1580833827.442,462700
1580833837.443,462745
1580833847.442,462786
1580833857.442,462834
1580833867.443,462883
1580833877.442,462916
1580833887.444,462952
1580833897.443,462982
1580833907.442,463019
1580833917.442,463062
1580833927.444,463096
1580833937.442,463139
1580833947.442,463182
1580833957.442,463224
1580833967.442,463264
1580833977.443,463313
1580833987.442,463350
1580833997.442,463401
1580834007.442,463448
1580834017.442,463481
1580834027.446,463525
1580834037.442,463566
1580834047.444,463623
1580834057.442,463664
1580834067.442,463706
1580834077.443,463751
1580834087.443,463792
1580834097.442,463836
1580834107.444,463876
1580834117.443,463928
1580834127.442,463973
1580834137.442,464018
1580834147.442,464061
1580834157.442,464104
1580834167.442,464150
1580834177.442,464189
1580834187.442,464240
1580834197.442,464286
1580834207.442,464331
1580834217.442,464375
1580834227.443,464420
1580834237.444,464467
1580834247.442,464512
1580834257.444,464543
1580834267.443,464574
1580834277.443,464614
1580834287.442,464654
1580834297.442,464696
1580834307.444,464739
1580834317.442,464782
1580834327.443,464822
1580834337.445,464866
1580834347.442,464904
1580834357.443,464957
1580834367.442,464999
1580834377.443,465044
1580834387.443,465081
1580834397.442,465126
1580834407.442,465156
1580834417.442,465188
1580834427.443,465239
1580834437.443,465281
1580834447.442,465319
1580834457.443,465354
1580834467.443,465389
1580834477.442,465430
1580834487.443,465470
1580834497.443,465520
1580834507.442,465555
1580834517.443,465595
1580834527.442,465630
1580834537.442,465665
1580834547.442,465710
1580834557.444,465755
1580834567.442,465782
1580834577.442,465826
1580834587.442,465871
1580834597.442,465906
1580834607.443,465948
1580834617.442,465993
1580834627.442,466056
1580834637.444,466098
1580834647.443,466138
1580834657.444,466192
1580834667.442,466236
1580834677.442,466276
1580834687.443,466316
1580834697.445,466360
1580834707.442,466394
1580834717.443,466443
1580834727.443,466483
1580834737.444,466520
1580834747.442,466549
1580834757.442,466593
1580834767.443,466640
1580834777.445,466686
1580834787.445,466728
1580834797.442,466777
1580834807.443,466817
1580834817.444,466858
1580834827.443,466902
1580834837.444,466941
1580834847.442,466984
1580834857.442,467030
1580834867.442,467075
1580834877.442,467122
1580834887.444,467163
1580834897.443,467201
1580834907.442,467234
1580834917.443,467279
1580834927.444,467327
1580834937.442,467380
1580834947.442,467425
1580834957.442,467460
1580834967.442,467498
1580834977.445,467538
1580834987.442,467594
1580834997.442,467636
1580835007.444,467674
1580835017.442,467721
1580835027.442,467760
1580835037.443,467801
1580835047.442,467841
1580835057.443,467878
1580835067.442,467919
1580835077.443,467959
1580835087.442,467999
1580835097.444,468052
