epoch,value
1580517795.262,0
1580517805.262,0
1580517815.262,0
1580517825.262,0
1580517845.262,0
1580517855.262,0
1580517865.262,0
1580517885.262,0
1580517895.262,0
1580517905.262,0
1580517915.262,0
1580517925.262,0
1580517935.262,0
1580517945.262,0
1580517955.262,0
1580517965.262,0
1580517975.262,0
1580517985.262,0
1580517995.262,0
1580518005.262,0
1580518015.262,0
1580518025.262,0
1580518035.262,0
1580518045.262,0
1580518055.262,0
1580518065.262,0
1580518075.262,0
1580518085.262,0
1580518095.262,0
1580518105.262,0
1580518115.262,0
1580518125.262,0
1580518135.262,0
1580518145.262,0
1580518155.262,0
1580518165.262,0
1580518175.262,0
1580518185.262,0
1580518195.263,0
1580518205.262,0
1580518215.262,0
1580518225.262,0
1580518235.262,0
1580518245.262,0
1580518255.262,0
1580518265.262,0
1580518275.262,0
1580518285.262,0
1580518295.262,0
1580518305.262,0
1580518315.262,0
1580518325.262,0
1580518335.262,0
1580518345.262,0
1580518355.262,0
1580518365.262,0
1580518375.262,0
1580518385.262,0
1580518395.262,0
1580518405.262,0
1580518415.262,0
1580518425.262,0
1580518435.262,0
1580518445.262,0
1580518455.262,0
1580518465.262,0
1580518475.262,0
1580518485.262,0
1580518495.262,0
1580518505.262,0
1580518515.262,0
1580518525.262,0
1580518535.262,0
1580518545.262,0
1580518555.262,0
1580518565.262,0
1580518575.262,0
1580518585.262,0
1580518595.263,0
1580518605.262,0
1580518615.262,0
1580518625.263,0
1580518635.262,0
1580518645.262,0
1580518655.262,0
1580518665.262,0
1580518675.262,0
1580518685.262,0
1580518695.262,0
1580518705.262,0
1580518715.262,1
1580518725.262,1
1580518735.262,1
1580518745.262,1
1580518755.262,1
1580518765.262,1
1580518775.262,1
1580518785.262,1
1580518805.262,1
1580518815.262,1
1580518825.262,1
1580518835.262,1
1580518845.262,1
1580518855.262,1
1580518865.262,1
1580518875.262,1
1580518885.262,1
1580518895.262,1
1580518905.262,1
1580518915.262,1
1580518925.262,1
1580518935.262,1
1580518945.262,1
1580518955.262,1
1580518965.262,1
1580518975.262,1
1580518985.262,1
1580518995.262,1
1580519005.262,1
1580519015.262,1
1580519025.262,1
1580519035.262,1
1580519045.262,1
1580519055.262,1
1580519065.262,1
1580519075.262,1
1580519085.262,1
1580519095.271,1
1580519105.262,1
1580519115.262,1
1580519125.262,1
1580519135.262,1
1580519145.262,1
1580519155.262,1
1580519165.262,1
1580519175.262,1
1580519185.262,1
1580519195.262,1
1580519205.262,1
1580519215.262,1
1580519225.262,1
1580519235.262,1
1580519245.262,1
1580519255.262,1
1580519265.262,1
1580519275.262,1
1580519285.262,1
1580519295.262,1
1580519305.262,1
1580519315.262,1
1580519325.262,1
1580519335.262,1
1580519345.262,1
1580519355.262,1
1580519365.262,1
1580519375.262,1
1580519385.262,2
1580519395.262,2
1580519405.262,2
1580519415.262,2
1580519425.262,2
1580519435.262,2
1580519445.262,2
1580519455.262,2
1580519465.262,2
1580519475.262,2
1580519485.262,2
1580519495.262,2
1580519505.262,2
1580519515.262,2
1580519525.262,2
1580519535.262,2
1580519545.262,2
1580519555.262,2
1580519565.262,2
1580519575.262,2
1580519585.262,2
1580519595.262,2
1580519605.262,2
1580519615.262,2
1580519625.262,2
1580519645.262,2
1580519655.262,2
1580519665.262,2
1580519675.262,2
1580519685.262,2
1580519695.262,2
1580519705.262,2
1580519715.262,2
1580519725.262,2
1580519735.262,2
1580519745.262,2
1580519755.262,2
1580519765.262,2
1580519775.262,2
1580519785.262,2
1580519795.262,2
1580519805.262,2
1580519815.262,2
1580519825.262,2
1580519835.262,2
1580519845.262,2
1580519855.262,2
1580519865.262,2
1580519875.262,2
1580519885.262,2
1580519895.262,2
1580519905.262,2
1580519915.262,3
1580519925.262,3
1580519935.262,3
1580519945.262,3
1580519955.262,3
1580519965.262,3
1580519975.262,3
1580519985.262,3
1580519995.262,3
1580520005.262,3
1580520015.262,3
1580520025.262,3
1580520035.262,3
1580520045.262,3
1580520055.262,3
1580520065.262,3
1580520075.262,3
1580520085.262,3
1580520095.262,3
1580520105.262,3
1580520115.262,3
1580520125.262,3
1580520135.262,3
1580520145.262,3
1580520155.262,3
1580520165.262,3
1580520175.262,3
1580520185.262,3
1580520195.269,3
1580520205.262,3
1580520215.262,3
1580520225.264,3
1580520235.262,3
1580520245.262,3
1580520255.262,3
1580520265.262,3
1580520275.262,3
1580520285.262,3
1580520295.262,3
1580520305.262,3
1580520315.262,3
1580520325.262,3
1580520335.262,3
1580520345.262,3
1580520355.262,3
1580520365.262,3
1580520375.262,3
1580520385.262,3
1580520395.262,3
1580520405.262,3
1580520415.262,3
1580520425.262,3
1580520435.262,3
1580520445.262,3
1580520455.262,3
1580520465.262,3
1580520475.262,3
1580520485.262,3
1580520495.262,3
1580520505.262,4
1580520515.262,4
1580520525.262,4
1580520535.262,4
1580520545.262,4
1580520555.262,4
1580520565.262,4
1580520575.262,4
1580520585.262,4
1580520595.262,4
1580520605.262,4
1580520615.262,4
1580520625.262,4
1580520635.262,4
1580520645.262,4
1580520655.262,4
1580520665.262,4
1580520675.262,4
1580520685.262,4
1580520695.262,4
1580520705.262,4
1580520715.262,4
1580520725.262,4
1580520735.262,4
1580520745.262,4
1580520755.262,4
1580520765.262,4
1580520775.262,4
1580520785.262,4
1580520795.262,4
1580520805.262,4
1580520815.262,4
1580520825.262,4
1580520835.262,4
1580520845.262,4
1580520855.262,4
1580520865.262,4
1580520875.262,4
1580520885.262,4
1580520895.262,4
1580520905.262,4
1580520915.262,4
1580520925.262,4
1580520935.262,4
1580520945.262,4
1580520955.262,4
1580520965.262,5
1580520975.262,5
1580520985.262,5
1580520995.262,5
1580521005.262,5
1580521015.262,5
1580521025.262,5
1580521035.262,5
1580521045.262,5
1580521055.262,5
1580521065.262,5
1580521075.262,5
1580521085.262,5
1580521095.262,5
1580521105.262,5
1580521115.262,5
1580521125.262,5
1580521135.262,5
1580521145.262,5
1580521155.262,5
1580521165.262,5
1580521175.262,5
1580521185.262,5
1580521195.262,5
1580521205.262,5
1580521215.262,5
1580521225.262,5
1580521235.262,5
1580521245.262,5
1580521255.262,5
1580521265.269,5
1580521275.262,5
1580521285.262,5
1580521295.262,5
1580521305.262,5
1580521315.262,5
1580521325.262,5
1580521335.262,5
1580521345.262,5
1580521355.262,5
1580521365.262,5
1580521375.262,5
1580521385.262,5
1580521395.262,5
1580521405.262,5
1580521415.262,5
1580521425.262,5
1580521435.262,5
1580521445.262,5
1580521465.262,5
1580521475.262,5
1580521485.262,5
1580521495.262,5
1580521505.262,5
1580521515.262,6
1580521525.262,6
1580521535.262,6
1580521545.262,6
1580521555.262,6
1580521565.262,6
1580521575.262,6
1580521585.262,6
1580521595.262,6
1580521605.262,6
1580521615.262,6
1580521625.262,6
1580521635.262,6
1580521645.262,6
1580521655.262,6
1580521665.262,6
1580521675.262,6
1580521685.262,6
1580521695.262,6
1580521705.262,6
1580521715.262,6
1580521725.262,6
1580521735.262,6
1580521745.262,6
1580521755.262,6
1580521775.262,6
1580521785.262,6
1580521795.262,6
1580521805.262,6
1580521815.262,6
1580521825.262,6
1580521835.262,6
1580521845.262,6
1580521855.262,6
1580521865.262,6
1580521875.262,6
1580521885.262,6
1580521895.262,6
1580521905.262,6
1580521915.262,6
1580521925.262,7
1580521935.262,7
1580521945.262,7
1580521955.262,7
1580521965.262,7
1580521975.262,7
1580521995.262,7
1580522005.262,7
1580522015.262,7
1580522025.262,7
1580522035.262,7
1580522045.262,7
1580522055.262,7
1580522065.262,7
1580522075.262,7
1580522085.262,7
1580522095.262,7
1580522105.262,7
1580522115.262,7
1580522125.262,7
1580522135.262,7
1580522145.262,7
1580522155.262,7
1580522165.262,7
1580522175.262,7
1580522185.262,7
1580522195.262,7
1580522205.262,7
1580522215.262,7
1580522225.262,7
1580522235.262,7
1580522245.262,7
1580522255.262,7
1580522265.262,7
1580522275.263,7
1580522285.262,7
1580522295.262,7
1580522305.262,7
1580522315.262,7
1580522325.262,7
1580522335.262,7
1580522345.262,7
1580522355.262,7
1580522365.262,7
1580522375.262,7
1580522385.262,7
1580522395.262,7
1580522405.262,7
1580522415.262,7
1580522425.262,7
1580522435.262,8
1580522445.262,8
1580522455.262,8
1580522465.262,8
1580522475.262,8
1580522485.262,8
1580522495.262,8
1580522505.262,8
1580522515.264,8
1580522525.262,8
1580522535.262,8
1580522545.262,8
1580522555.262,8
1580522565.262,8
1580522575.262,8
1580522585.262,8
1580522595.262,8
1580522605.262,8
1580522615.262,8
1580522625.262,8
1580522635.262,8
1580522645.262,8
1580522655.262,8
1580522665.262,8
1580522675.262,8
1580522685.262,8
1580522695.262,8
1580522705.262,8
1580522715.262,8
1580522725.262,8
1580522735.262,8
1580522745.262,8
1580522755.262,8
1580522765.262,8
1580522775.262,8
1580522785.262,8
1580522795.262,8
1580522805.262,8
1580522815.262,8
1580522825.262,8
1580522835.262,8
1580522845.262,8
1580522855.262,8
1580522865.262,8
1580522875.269,8
1580522885.262,8
1580522895.262,8
1580522905.262,8
1580522915.262,8
1580522925.262,8
1580522935.262,8
1580522945.262,8
1580522955.262,9
1580522965.262,9
1580522975.262,9
1580522985.262,9
1580522995.262,9
1580523005.262,9
1580523015.262,9
1580523025.262,9
1580523035.262,9
1580523045.262,9
1580523055.262,9
1580523065.262,9
1580523075.262,9
1580523085.262,9
1580523095.262,9
1580523105.262,9
1580523115.262,9
1580523125.262,9
1580523135.262,9
1580523145.262,9
1580523155.262,9
1580523165.262,9
1580523175.262,9
1580523185.262,9
1580523195.262,9
1580523205.262,9
1580523215.262,9
1580523225.262,9
1580523235.262,9
1580523245.262,9
1580523255.262,9
1580523265.262,9
1580523275.262,9
1580523285.262,9
1580523295.262,9
1580523305.262,9
1580523315.262,9
1580523325.262,9
1580523335.262,9
1580523345.262,9
1580523355.262,9
1580523365.262,9
1580523375.262,9
1580523385.262,9
1580523395.262,9
1580523405.262,9
1580523415.262,9
1580523425.262,9
1580523435.262,10
1580523445.262,10
1580523455.262,10
1580523465.262,10
1580523475.262,10
1580523485.262,10
1580523495.262,10
1580523505.262,10
1580523515.262,10
1580523525.262,10
1580523535.262,10
1580523545.262,10
1580523555.262,10
1580523565.262,10
1580523575.262,10
1580523585.262,10
1580523595.262,10
1580523605.262,10
1580523615.262,10
1580523625.262,10
1580523635.262,10
1580523645.262,10
1580523655.262,10
1580523665.262,10
1580523675.262,10
1580523685.262,10
1580523695.262,10
1580523705.262,10
1580523715.262,10
1580523725.262,10
1580523735.262,10
1580523745.262,10
1580523755.262,10
1580523765.262,10
1580523775.262,10
1580523785.262,10
1580523795.262,10
1580523805.262,10
1580523815.262,10
1580523825.262,10
1580523835.262,10
1580523845.262,10
1580523855.262,10
1580523865.262,10
1580523875.262,10
1580523885.262,10
1580523895.262,10
1580523905.262,10
1580523915.262,10
1580523925.263,10
1580523935.262,10
1580523945.262,10
1580523955.262,10
1580523965.262,10
1580523975.262,10
1580523985.262,10
1580523995.262,10
1580524005.262,10
1580524015.262,10
1580524025.262,10
1580524035.262,10
1580524045.262,10
1580524055.262,10
1580524075.262,10
1580524085.262,10
1580524095.262,11
1580524105.262,11
1580524115.262,11
1580524125.262,11
1580524135.262,11
1580524145.262,11
1580524155.262,11
1580524165.262,11
1580524175.262,11
1580524185.262,11
1580524195.262,11
1580524205.262,11
1580524215.262,11
1580524225.262,11
1580524235.262,11
1580524245.265,11
1580524255.269,11
1580524265.262,11
1580524275.262,11
1580524285.262,11
1580524295.262,11
1580524305.262,11
1580524315.262,11
1580524325.262,11
1580524335.262,11
1580524345.262,11
1580524355.262,11
1580524365.262,11
1580524375.262,11
1580524385.262,11
1580524395.262,11
1580524405.262,11
1580524415.262,11
1580524435.262,11
1580524445.262,11
1580524455.262,11
1580524465.262,11
1580524475.262,11
1580524485.262,11
1580524495.262,11
1580524505.262,11
1580524515.262,11
1580524525.262,12
1580524535.262,12
1580524545.262,12
1580524555.262,12
1580524565.262,12
1580524575.262,12
1580524585.262,12
1580524595.262,12
1580524605.262,12
1580524615.262,12
1580524625.262,12
1580524635.262,12
1580524645.262,12
1580524655.262,12
1580524665.262,12
1580524675.262,12
1580524685.262,12
1580524695.262,12
1580524705.262,12
1580524715.262,12
1580524725.262,12
1580524735.262,12
1580524745.262,12
1580524755.262,12
1580524765.262,12
1580524775.262,12
1580524785.262,12
1580524795.262,12
1580524805.262,12
1580524815.262,12
1580524825.262,12
1580524835.262,12
1580524845.262,12
1580524855.262,12
1580524865.262,12
1580524875.262,12
1580524885.262,12
1580524895.262,12
1580524905.262,12
1580524915.262,12
1580524925.262,12
1580524935.262,12
1580524945.262,12
1580524955.262,12
1580524965.262,12
1580524975.262,12
1580524995.262,12
1580525005.262,12
1580525015.262,12
1580525025.262,12
1580525035.262,13
1580525045.262,13
1580525055.262,13
1580525065.262,13
1580525075.262,13
1580525095.262,13
1580525105.262,13
1580525115.265,13
1580525125.262,13
1580525135.262,13
1580525145.262,13
1580525155.262,13
1580525165.262,13
1580525175.262,13
1580525185.262,13
1580525195.262,13
1580525205.262,13
1580525215.262,13
1580525225.262,13
1580525235.262,13
1580525245.262,13
1580525255.262,13
1580525265.262,13
1580525275.262,13
1580525285.262,13
1580525295.262,13
1580525305.262,13
1580525315.262,13
1580525325.262,13
1580525335.262,13
1580525345.262,13
1580525355.262,13
1580525365.262,13
1580525375.262,13
1580525385.262,13
1580525395.262,13
1580525405.262,13
1580525415.262,13
1580525425.262,14
1580525435.262,14
1580525445.262,14
1580525455.262,14
1580525465.262,14
1580525475.262,14
1580525485.262,14
1580525495.262,14
1580525505.262,14
1580525515.262,14
1580525525.262,14
1580525535.262,14
1580525545.262,14
1580525555.262,14
1580525565.262,14
1580525575.262,14
1580525585.262,14
1580525595.262,14
1580525605.262,14
1580525615.262,14
1580525625.262,14
1580525635.262,14
1580525645.262,14
1580525655.262,14
1580525665.262,14
1580525675.262,14
1580525685.262,14
1580525695.262,14
1580525705.262,14
1580525715.262,14
1580525725.262,14
1580525735.262,14
1580525745.262,14
1580525755.262,14
1580525765.262,14
1580525775.262,14
1580525785.262,14
1580525795.262,14
1580525805.262,14
1580525815.262,15
1580525825.262,15
1580525845.262,15
1580525855.262,15
1580525865.262,15
1580525875.262,15
1580525885.262,15
1580525895.262,15
1580525905.262,15
1580525915.262,15
