epoch,value
1579947374.708,285384
1579947384.690,285384
1579947394.688,285385
1579947404.689,285385
1579947414.691,285386
1579947424.688,285386
1579947434.688,285396
1579947444.688,285437
1579947454.688,285474
1579947464.688,285501
1579947474.688,285534
1579947484.688,285578
1579947494.688,285612
1579947504.688,285648
1579947514.688,285684
1579947524.690,285709
1579947534.690,285763
1579947544.688,285802
1579947554.688,285846
1579947564.688,285884
1579947574.688,285919
1579947584.688,285945
1579947594.688,285980
1579947604.688,286020
1579947614.688,286053
1579947624.688,286086
1579947634.689,286128
1579947644.688,286173
1579947654.689,286220
1579947664.688,286257
1579947674.689,286301
1579947684.688,286352
1579947694.688,286390
1579947704.688,286426
1579947714.688,286455
1579947724.688,286489
1579947734.688,286526
1579947744.688,286569
1579947754.688,286607
1579947764.689,286647
1579947774.688,286682
1579947784.688,286715
1579947794.688,286754
1579947804.688,286791
1579947814.688,286826
1579947824.692,286877
1579947834.690,286918
1579947844.688,286972
1579947854.688,287010
1579947864.688,287056
1579947874.688,287099
1579947884.689,287140
1579947894.688,287173
1579947904.688,287218
1579947914.688,287259
1579947924.688,287297
1579947934.688,287334
1579947944.688,287383
1579947954.689,287438
1579947964.688,287479
1579947974.688,287516
1579947984.688,287567
1579947994.688,287607
1579948004.688,287657
1579948014.688,287695
1579948024.688,287742
1579948034.688,287776
1579948044.688,287811
1579948054.689,287857
1579948064.688,287900
1579948074.688,287944
1579948084.688,287986
1579948094.688,288032
1579948104.688,288079
1579948114.688,288130
1579948124.688,288171
1579948134.689,288211
1579948144.688,288252
1579948154.689,288302
1579948164.688,288345
1579948174.690,288391
1579948184.688,288430
1579948194.688,288472
1579948204.688,288523
1579948214.688,288566
1579948224.688,288608
1579948234.690,288646
1579948244.688,288683
1579948254.689,288726
1579948264.688,288774
1579948274.690,288817
1579948284.689,288868
1579948294.688,288905
1579948304.688,288941
1579948314.690,288978
1579948324.688,289018
1579948334.688,289062
1579948344.688,289103
1579948354.689,289146
1579948364.688,289186
1579948374.690,289229
1579948384.690,289266
1579948394.688,289306
1579948404.688,289344
1579948414.688,289380
1579948424.690,289417
1579948434.688,289450
1579948444.688,289493
1579948454.689,289530
1579948464.691,289580
1579948474.688,289628
1579948484.688,289671
1579948494.688,289710
1579948504.688,289762
1579948514.690,289808
1579948524.689,289853
1579948534.688,289905
1579948544.688,289960
1579948554.690,290010
1579948564.688,290059
1579948574.689,290100
1579948584.688,290153
1579948594.688,290188
1579948604.688,290236
1579948614.688,290274
1579948624.688,290319
1579948634.688,290363
1579948644.688,290396
1579948654.688,290448
1579948664.692,290488
1579948674.691,290536
1579948684.688,290577
1579948694.688,290613
1579948704.689,290648
1579948714.688,290688
1579948724.688,290726
1579948734.688,290767
1579948744.688,290810
1579948754.688,290853
1579948764.688,290904
1579948774.690,290944
1579948784.688,290984
1579948794.689,291025
1579948804.689,291071
1579948814.688,291105
1579948824.688,291152
1579948834.688,291192
1579948844.688,291228
1579948854.688,291253
1579948864.688,291290
1579948874.688,291335
1579948884.688,291378
1579948894.689,291412
1579948904.688,291458
1579948914.688,291507
1579948924.690,291546
1579948934.688,291582
1579948944.689,291624
1579948954.688,291662
1579948964.688,291701
1579948974.688,291736
1579948984.688,291772
1579948994.689,291808
1579949004.688,291844
1579949014.689,291885
1579949024.690,291927
1579949034.688,291971
1579949044.688,292026
1579949054.688,292078
1579949064.689,292124
1579949074.688,292160
1579949084.690,292203
1579949094.690,292246
1579949104.689,292284
1579949114.688,292318
1579949124.688,292367
1579949134.688,292406
1579949144.688,292441
1579949154.688,292487
1579949164.689,292533
1579949174.688,292572
1579949184.688,292620
1579949194.688,292664
1579949204.688,292704
1579949214.688,292743
1579949224.688,292780
1579949234.688,292812
1579949244.689,292847
1579949254.688,292891
1579949264.689,292934
1579949274.688,292983
1579949284.688,293027
1579949294.689,293062
1579949304.688,293110
1579949314.691,293153
1579949324.688,293198
1579949334.690,293234
1579949344.688,293273
1579949354.688,293312
1579949364.688,293372
1579949374.688,293421
1579949384.688,293467
1579949394.688,293513
1579949404.688,293564
1579949414.688,293614
1579949424.689,293655
1579949434.688,293709
1579949444.688,293758
1579949454.688,293792
1579949464.689,293830
1579949474.688,293880
1579949484.688,293919
1579949494.688,293962
1579949504.688,294008
1579949514.688,294052
1579949524.688,294097
1579949534.689,294136
1579949544.688,294175
1579949554.688,294206
1579949564.688,294246
1579949574.688,294278
1579949584.688,294318
1579949594.688,294358
1579949604.689,294395
1579949614.688,294434
1579949624.688,294487
1579949634.688,294530
1579949644.688,294580
1579949654.689,294618
1579949664.691,294670
1579949674.688,294717
1579949684.688,294760
1579949694.690,294814
1579949704.688,294864
1579949714.688,294908
1579949724.688,294954
1579949734.688,294994
1579949744.688,295037
1579949754.688,295076
1579949764.688,295128
1579949774.688,295173
1579949784.688,295219
1579949794.688,295259
1579949804.688,295288
1579949814.690,295288
1579949824.688,295288
1579949834.688,295288
1579949844.688,295289
1579949854.688,295290
1579949864.688,295290
1579949874.688,295291
1579949884.688,295292
1579949894.689,295292
1579949904.688,295292
1579949914.688,295293
1579949924.688,295293
1579949934.688,295293
1579949944.688,295294
1579949954.688,295294
1579949964.688,295294
1579949974.688,295294
1579949984.688,295295
1579949994.690,295295
1579950004.688,295296
1579950014.688,295296
