epoch,value
1580431531.202,0
1580431541.202,0
1580431551.202,0
1580431561.202,0
1580431571.202,1
1580431581.202,2
1580431591.202,2
1580431601.203,3
1580431611.202,5
1580431621.202,7
1580431631.202,12
1580431641.202,13
1580431651.202,15
1580431661.202,16
1580431671.202,37
1580431681.202,44
1580431691.202,47
1580431701.203,57
1580431711.205,63
1580431721.202,79
1580431731.205,93
1580431741.202,94
1580431751.202,94
1580431761.202,94
1580431771.206,95
1580431781.202,95
1580431791.202,95
1580431801.202,95
1580431811.202,95
1580431821.202,95
1580431831.202,95
1580431841.202,95
1580431851.202,95
1580431861.207,95
1580431871.202,95
1580431881.202,95
1580431891.202,95
1580431901.202,95
1580431911.202,95
1580431921.202,95
1580431931.202,95
1580431941.202,95
1580431951.202,95
1580431961.202,95
1580431971.202,95
1580431981.206,95
1580431991.202,95
1580432001.202,95
1580432011.202,95
1580432021.202,95
1580432031.202,95
1580432041.202,95
1580432051.202,95
1580432061.202,95
1580432071.202,95
1580432081.202,95
1580432091.202,95
1580432101.202,96
1580432111.202,96
1580432121.202,96
1580432131.202,96
1580432141.202,96
1580432151.202,96
1580432161.202,96
1580432171.202,96
1580432181.202,96
1580432191.202,96
1580432201.202,96
1580432211.202,96
1580432221.202,96
1580432231.202,96
1580432241.202,96
1580432251.202,96
1580432261.202,96
1580432271.202,96
1580432281.202,96
1580432291.202,96
1580432301.202,96
1580432311.202,96
1580432321.202,96
1580432331.202,96
1580432341.202,96
1580432351.202,96
1580432361.202,96
1580432371.203,96
1580432381.202,96
1580432391.202,96
1580432401.202,96
1580432411.205,97
1580432421.202,97
1580432431.202,97
1580432441.202,97
1580432451.202,97
1580432461.202,97
1580432471.202,97
1580432481.202,97
1580432491.202,97
1580432501.202,97
1580432511.202,97
1580432521.202,97
1580432531.202,97
1580432541.207,97
1580432551.202,97
1580432561.202,97
1580432581.202,97
1580432591.202,97
1580432601.202,97
1580432611.202,97
1580432621.202,97
1580432631.204,97
1580432641.202,97
1580432651.202,97
1580432661.202,97
1580432671.202,97
1580432681.202,98
1580432691.202,98
1580432701.202,98
1580432711.202,98
1580432721.202,98
1580432731.202,98
1580432741.202,98
1580432751.202,98
1580432761.202,98
1580432771.202,98
1580432781.202,98
1580432791.202,98
1580432801.202,98
1580432811.202,98
1580432821.202,98
1580432831.202,98
1580432841.202,98
1580432851.202,98
1580432861.205,98
1580432871.202,98
1580432881.202,98
1580432891.207,98
1580432901.202,98
1580432911.202,99
1580432921.202,99
1580432931.202,99
1580432941.202,99
1580432951.202,99
1580432961.202,99
1580432971.202,99
1580432981.202,99
1580432991.202,99
1580433001.202,99
1580433011.202,99
1580433021.207,99
1580433031.202,99
1580433041.202,99
1580433051.202,99
1580433061.202,99
1580433071.202,99
1580433081.202,99
1580433091.202,99
1580433101.202,99
1580433111.202,99
1580433121.202,99
1580433131.202,99
1580433141.202,99
1580433151.207,99
1580433161.202,100
1580433171.202,100
1580433181.202,100
1580433191.202,100
1580433201.202,100
1580433211.202,100
1580433221.202,100
1580433231.202,100
1580433241.202,100
1580433251.202,100
1580433261.202,100
1580433271.202,100
1580433281.202,100
1580433291.202,100
1580433301.202,100
1580433311.202,100
1580433321.202,100
1580433331.202,100
1580433341.202,101
1580433351.202,101
1580433361.202,101
1580433371.202,101
1580433381.202,101
1580433391.202,101
1580433401.202,101
1580433411.202,101
1580433421.202,101
1580433431.202,101
1580433441.202,101
1580433451.202,101
1580433461.202,101
1580433471.202,101
1580433481.202,101
1580433491.202,101
1580433501.207,101
1580433511.202,101
1580433521.202,102
1580433531.202,102
1580433541.202,102
1580433551.202,102
1580433561.202,102
1580433571.206,102
1580433581.202,103
1580433591.202,103
1580433601.202,103
1580433611.202,103
1580433621.202,103
1580433631.202,103
1580433641.202,104
1580433651.202,104
1580433661.202,104
1580433671.202,104
1580433681.202,104
1580433691.202,105
1580433701.202,105
1580433711.202,105
1580433721.202,105
1580433731.202,105
1580433741.202,105
1580433751.202,106
1580433761.202,106
1580433771.202,106
1580433781.202,106
1580433791.202,106
1580433801.202,106
1580433811.202,106
1580433821.202,107
1580433831.202,107
1580433841.202,107
1580433851.202,107
1580433861.202,108
1580433871.202,108
1580433881.204,108
1580433891.202,108
1580433901.202,108
1580433911.202,109
1580433921.202,109
1580433931.202,110
1580433941.202,110
1580433951.202,110
1580433961.202,110
1580433971.202,111
1580433981.202,111
1580433991.202,111
1580434001.202,111
1580434011.202,111
1580434021.202,111
1580434031.202,111
1580434041.202,112
1580434051.202,112
1580434061.203,112
1580434071.202,113
1580434081.202,113
1580434091.202,113
1580434101.202,114
1580434111.206,114
1580434121.202,114
1580434131.202,115
1580434141.202,115
1580434151.202,115
1580434161.205,115
1580434171.202,115
1580434181.202,115
1580434191.207,116
1580434201.202,116
1580434211.202,116
1580434221.202,116
1580434231.202,116
1580434241.202,116
1580434251.202,116
1580434261.202,116
1580434271.202,116
1580434281.202,117
1580434291.203,117
1580434301.202,117
1580434311.202,117
1580434321.202,117
1580434331.202,118
1580434341.202,118
1580434351.202,118
1580434361.202,118
1580434371.202,118
1580434381.202,119
1580434391.202,119
1580434401.202,119
1580434411.202,119
1580434421.202,119
1580434431.202,119
1580434441.202,120
1580434451.202,120
1580434461.202,120
1580434471.202,120
1580434481.202,120
1580434491.202,120
1580434501.202,121
1580434511.202,121
1580434521.202,121
1580434531.202,121
1580434541.202,121
1580434551.202,121
1580434561.202,121
1580434571.202,121
1580434581.202,121
1580434591.202,121
1580434601.202,121
1580434611.202,121
1580434621.202,121
1580434631.202,121
1580434641.202,122
1580434651.202,122
1580434661.202,122
1580434671.202,123
1580434681.202,123
1580434691.202,123
1580434701.202,123
1580434711.202,123
1580434721.202,123
1580434731.202,123
1580434741.202,123
1580434751.202,123
1580434761.202,123
1580434771.202,124
1580434781.202,124
1580434791.202,124
1580434801.202,124
1580434811.202,124
1580434821.202,124
1580434831.202,124
1580434841.202,124
1580434851.202,124
1580434861.202,124
1580434871.202,124
1580434881.202,124
1580434891.202,125
1580434901.202,125
1580434911.202,125
1580434921.202,125
1580434931.202,125
1580434941.202,125
1580434951.203,125
1580434961.202,125
1580434971.202,125
1580434981.207,125
1580434991.202,126
1580435001.202,126
1580435011.202,126
1580435021.202,126
1580435031.202,126
1580435041.202,126
1580435051.202,126
1580435061.202,126
1580435071.202,126
1580435081.202,126
1580435091.202,126
1580435101.202,126
1580435111.202,127
1580435121.202,127
1580435131.202,127
1580435141.202,127
1580435151.202,127
1580435161.202,127
1580435171.202,127
1580435181.202,127
1580435191.202,127
1580435201.202,127
1580435211.202,127
1580435221.202,127
1580435231.202,127
1580435241.202,127
1580435251.202,127
1580435261.207,128
1580435271.202,128
1580435281.202,128
1580435291.202,128
1580435301.202,128
1580435311.202,128
1580435321.202,128
1580435331.202,128
1580435341.202,128
1580435351.202,129
1580435361.202,129
1580435371.202,129
1580435381.202,129
1580435391.202,129
1580435401.202,129
1580435411.202,129
1580435421.202,129
1580435431.202,129
1580435441.202,129
1580435451.202,130
1580435461.202,130
1580435471.202,130
1580435481.202,130
1580435491.202,130
1580435501.202,130
1580435511.202,130
1580435521.203,130
1580435531.202,130
1580435541.202,130
1580435551.202,130
1580435561.202,130
1580435571.202,130
1580435581.202,130
1580435591.202,130
1580435601.202,130
1580435611.202,130
1580435621.202,131
1580435631.202,131
1580435641.202,131
1580435651.202,131
1580435661.202,131
1580435671.202,131
1580435681.202,131
1580435691.202,131
1580435701.202,131
1580435711.202,131
1580435721.202,131
1580435731.202,131
1580435741.202,131
1580435751.202,131
1580435761.202,131
1580435771.202,131
1580435781.202,131
1580435791.202,131
1580435801.202,131
1580435811.202,131
1580435821.202,132
1580435831.202,132
1580435841.207,132
1580435851.202,132
1580435861.202,132
1580435871.202,132
1580435881.202,132
1580435891.202,132
1580435901.202,132
1580435911.202,132
1580435921.202,132
1580435931.202,132
1580435941.202,132
1580435951.202,132
1580435961.202,132
1580435971.202,132
1580435981.202,132
1580435991.202,132
1580436001.202,132
1580436011.202,132
1580436021.202,132
1580436031.202,132
1580436041.202,132
1580436051.202,132
1580436061.202,132
1580436071.202,132
1580436081.202,132
1580436091.202,133
1580436101.202,133
1580436111.202,133
1580436121.202,133
1580436131.202,133
1580436141.202,133
1580436151.202,133
1580436161.202,133
1580436171.202,133
1580436181.202,133
1580436191.202,133
1580436201.202,133
1580436211.202,133
1580436221.202,133
1580436231.202,133
1580436241.202,133
1580436251.202,133
1580436261.202,133
1580436271.203,133
1580436281.202,134
1580436291.202,134
1580436301.202,134
1580436311.202,134
1580436321.202,134
1580436331.202,134
1580436341.202,134
1580436351.205,134
1580436361.202,134
1580436371.202,134
1580436381.202,134
1580436391.202,134
1580436401.202,135
1580436411.202,135
1580436421.202,135
1580436431.202,135
1580436441.202,135
1580436451.202,135
1580436461.202,135
1580436471.202,135
1580436481.202,135
1580436491.202,135
1580436501.202,135
1580436511.202,136
1580436521.202,136
1580436531.202,136
1580436541.205,136
1580436551.202,136
1580436561.202,136
1580436571.202,136
1580436581.202,136
1580436591.202,136
1580436601.202,136
1580436611.202,136
1580436621.202,136
1580436631.202,136
1580436641.202,137
1580436651.202,137
1580436661.202,137
1580436671.202,137
1580436681.202,137
1580436691.202,137
1580436701.202,137
1580436711.202,137
1580436721.202,137
1580436731.202,137
1580436741.202,137
1580436751.202,137
1580436761.202,138
1580436771.202,138
1580436781.202,138
1580436791.202,138
1580436801.202,138
1580436811.202,138
1580436821.202,138
1580436831.202,138
1580436841.202,138
1580436851.202,138
1580436861.202,138
1580436871.202,138
1580436881.202,138
1580436891.202,138
1580436901.202,139
1580436911.202,139
1580436921.202,139
1580436931.202,139
1580436941.202,139
1580436951.202,139
1580436961.202,139
1580436971.202,139
1580436981.202,139
1580436991.202,139
1580437001.202,139
1580437011.202,139
1580437021.202,139
1580437031.202,139
1580437041.202,139
1580437051.202,139
1580437061.202,139
1580437071.202,139
1580437081.202,139
1580437091.202,139
1580437101.202,139
1580437111.202,139
1580437121.202,139
1580437131.202,139
1580437141.202,139
1580437151.202,139
1580437161.202,139
1580437171.202,139
1580437181.202,139
1580437191.202,139
1580437201.207,140
1580437211.202,140
1580437221.202,140
1580437231.202,140
1580437241.202,140
1580437251.202,140
1580437261.202,140
1580437271.202,140
1580437281.202,140
1580437291.202,140
1580437301.202,140
1580437311.202,140
1580437321.202,140
1580437331.202,140
1580437341.202,140
1580437351.202,140
1580437361.202,140
1580437371.202,140
1580437381.202,140
1580437391.202,140
1580437401.202,140
1580437411.202,140
1580437421.202,140
1580437431.202,140
1580437441.202,140
1580437451.202,140
1580437461.205,140
1580437471.202,140
1580437481.202,140
1580437491.202,140
1580437501.202,141
1580437511.202,141
1580437521.202,141
1580437531.202,141
1580437541.202,141
1580437551.202,141
1580437561.202,141
1580437571.202,141
1580437581.202,141
1580437591.202,141
1580437601.202,141
1580437611.202,141
1580437621.202,141
1580437631.202,141
1580437641.202,141
1580437651.202,141
1580437661.202,141
1580437671.202,142
1580437681.202,142
1580437691.202,142
1580437701.202,142
1580437711.202,142
1580437721.202,142
1580437731.202,142
1580437741.202,142
1580437751.206,142
1580437761.202,142
1580437771.202,142
1580437781.202,142
1580437791.202,142
1580437801.202,142
1580437811.202,142
1580437821.202,142
1580437831.202,142
1580437841.202,142
1580437851.202,142
1580437861.202,142
1580437871.202,142
1580437881.202,142
1580437891.202,142
1580437901.202,142
1580437911.202,142
1580437921.202,143
1580437931.202,143
1580437941.202,143
1580437951.202,143
1580437961.202,143
1580437971.202,143
1580437981.202,143
1580437991.202,144
1580438001.202,144
1580438011.202,144
1580438021.202,144
1580438031.202,144
1580438041.202,144
1580438051.202,144
1580438061.202,144
1580438071.202,145
1580438081.202,145
1580438091.202,145
1580438101.202,145
1580438111.202,145
1580438121.202,145
1580438131.202,145
1580438141.202,145
1580438151.202,145
1580438161.202,146
1580438171.202,146
1580438181.202,146
1580438191.202,146
1580438201.202,146
1580438211.202,146
1580438221.202,146
1580438231.202,147
1580438241.202,147
1580438251.202,147
1580438261.202,147
1580438271.202,147
1580438281.205,147
1580438291.202,147
1580438301.202,148
1580438311.202,148
1580438321.202,148
1580438331.202,148
1580438341.202,148
1580438351.202,148
1580438361.202,149
1580438371.202,149
1580438381.202,149
1580438391.202,149
1580438401.202,149
1580438411.202,149
1580438421.202,149
1580438431.202,149
1580438441.202,149
1580438451.202,149
1580438461.202,149
1580438471.202,149
1580438481.202,149
1580438491.202,149
1580438501.202,149
1580438511.202,149
1580438521.202,149
1580438531.202,150
1580438541.202,150
1580438551.202,150
1580438561.202,150
1580438571.202,150
1580438581.202,150
1580438591.202,150
1580438601.202,150
1580438611.202,150
1580438621.202,151
1580438631.202,151
1580438641.202,151
1580438651.202,151
1580438661.207,151
1580438671.202,151
1580438681.202,151
1580438691.202,152
1580438701.202,152
1580438711.202,152
1580438721.205,152
1580438731.202,152
1580438741.202,152
1580438751.202,153
1580438761.202,153
1580438771.202,153
1580438781.202,153
1580438791.202,153
1580438801.202,153
1580438811.202,153
1580438821.202,153
1580438831.202,153
1580438841.202,153
1580438851.203,153
1580438861.202,153
1580438871.204,153
1580438881.202,153
1580438891.202,153
1580438901.202,153
1580438911.202,153
1580438921.202,153
1580438931.202,153
1580438941.202,154
