epoch,value
1580212426.916,0
1580212436.915,0
1580212446.915,0
1580212456.915,4
1580212466.915,7
1580212476.915,8
1580212486.915,8
1580212496.915,11
1580212506.915,15
1580212516.915,23
1580212526.915,24
1580212536.915,27
1580212546.915,27
1580212556.915,27
1580212566.915,28
1580212576.915,28
1580212586.915,28
1580212596.915,31
1580212606.915,39
1580212616.915,44
1580212626.915,44
1580212636.915,48
1580212646.915,53
1580212656.915,56
1580212666.915,57
1580212676.915,57
1580212686.915,57
1580212696.915,63
1580212706.915,66
1580212716.916,72
1580212726.915,77
1580212736.915,78
1580212746.915,79
1580212756.915,85
1580212766.915,85
1580212776.915,85
1580212786.915,85
1580212796.915,85
1580212806.915,85
1580212816.915,85
1580212826.915,85
1580212836.915,85
1580212846.915,85
1580212856.915,85
1580212866.915,85
1580212876.916,85
1580212886.915,85
1580212896.915,85
1580212906.915,85
1580212916.915,85
1580212926.915,85
1580212936.915,85
1580212946.915,85
1580212956.915,85
1580212966.915,85
1580212976.915,85
1580212986.915,85
1580212996.915,85
1580213006.915,85
1580213016.915,85
1580213026.915,85
1580213036.915,85
1580213046.915,85
1580213056.915,85
1580213066.915,85
1580213076.915,85
1580213086.915,85
1580213096.915,85
1580213106.915,85
1580213116.915,85
1580213126.915,86
1580213136.915,86
1580213146.915,86
1580213156.915,86
1580213166.915,86
1580213176.915,86
1580213186.915,86
1580213196.915,86
1580213206.915,86
1580213216.915,86
1580213226.915,86
1580213236.915,86
1580213246.915,86
1580213256.915,86
1580213266.915,86
1580213276.915,86
1580213286.915,86
1580213296.915,86
1580213306.915,86
1580213316.915,86
1580213326.915,86
1580213336.915,86
1580213346.917,86
1580213356.915,86
1580213366.915,86
1580213376.915,86
1580213386.915,86
1580213396.917,86
1580213406.915,86
1580213416.915,86
1580213426.915,86
1580213436.915,86
1580213446.916,86
1580213456.915,86
1580213466.915,86
1580213476.915,86
1580213486.915,86
1580213496.915,86
1580213506.915,86
1580213516.915,86
1580213526.915,86
1580213536.915,86
1580213546.915,86
1580213556.915,86
1580213566.915,86
1580213576.915,86
1580213586.915,87
1580213596.915,87
1580213606.916,87
1580213616.915,87
1580213626.915,87
1580213636.915,87
1580213646.915,87
1580213656.915,87
1580213666.915,87
1580213676.915,87
1580213686.915,87
1580213696.916,87
1580213706.915,87
1580213716.915,87
1580213726.915,87
1580213736.916,87
1580213746.915,87
1580213756.915,87
1580213766.915,87
1580213776.915,87
1580213786.915,87
1580213796.915,87
1580213806.915,87
1580213816.915,88
1580213826.915,88
1580213836.915,88
1580213846.915,88
1580213856.915,88
1580213866.915,88
1580213876.915,88
1580213886.915,88
1580213896.915,88
1580213906.915,89
1580213916.915,89
1580213926.915,89
1580213936.915,89
1580213946.915,89
1580213956.923,89
1580213966.915,89
1580213976.915,89
1580213986.915,89
1580213996.915,89
1580214006.915,89
1580214016.915,89
1580214026.915,89
1580214036.915,89
1580214046.915,89
1580214056.915,89
1580214066.915,89
1580214076.915,89
1580214086.915,90
1580214096.915,90
1580214106.915,90
1580214116.915,90
1580214126.915,90
1580214136.915,90
1580214146.915,90
1580214156.915,90
1580214166.915,90
1580214176.915,90
1580214186.915,90
1580214196.921,91
1580214206.915,91
1580214216.915,91
1580214226.915,91
1580214236.915,91
1580214246.915,91
1580214256.915,91
1580214266.915,91
1580214276.915,91
1580214286.915,92
1580214296.915,92
1580214306.915,92
1580214316.915,92
1580214326.915,92
1580214336.915,92
1580214346.915,92
1580214356.915,92
1580214366.915,92
1580214376.915,92
1580214386.915,92
1580214396.915,92
1580214406.915,92
1580214416.915,92
1580214426.915,92
1580214436.915,92
1580214446.915,92
1580214456.915,92
1580214466.915,93
1580214476.915,93
1580214486.915,93
1580214496.915,93
1580214506.915,93
1580214516.915,93
1580214526.915,93
1580214536.915,93
1580214546.915,93
1580214556.915,93
1580214566.915,93
1580214576.915,93
1580214586.915,93
1580214596.915,93
1580214606.915,93
1580214616.915,93
1580214626.915,94
1580214636.915,94
1580214646.915,94
1580214656.915,94
1580214666.915,94
1580214676.915,94
1580214686.915,94
1580214696.915,94
1580214706.915,94
1580214716.915,94
1580214726.915,94
1580214736.915,94
1580214746.915,94
1580214756.915,94
1580214766.915,94
1580214776.915,94
1580214786.915,94
1580214796.918,94
1580214806.915,94
1580214816.915,94
1580214826.915,94
1580214836.915,94
1580214846.915,94
1580214856.915,94
1580214866.915,94
1580214876.915,94
1580214886.915,94
1580214896.915,94
1580214906.915,94
1580214916.921,94
1580214926.915,94
1580214936.915,94
1580214946.915,94
1580214956.915,95
1580214966.915,95
1580214976.915,95
1580214986.916,95
1580214996.915,95
1580215006.915,95
1580215016.915,95
1580215026.915,95
1580215036.915,95
1580215046.915,95
1580215056.916,95
1580215066.919,95
1580215076.915,95
1580215086.915,95
1580215096.915,95
1580215106.915,95
1580215116.915,95
1580215126.915,95
1580215136.915,95
1580215146.915,95
1580215156.915,95
1580215166.921,96
