epoch,value
1579885988.473,247425
1579885998.452,247427
1579886008.452,247427
1579886018.452,247427
1579886028.452,247427
1579886038.452,247428
1579886048.452,247428
1579886058.452,247428
1579886068.452,247428
1579886078.452,247429
1579886088.452,247429
1579886098.453,247429
1579886108.452,247429
1579886118.452,247430
1579886128.452,247430
1579886138.452,247430
1579886148.452,247430
1579886158.453,247430
1579886168.452,247430
1579886178.452,247431
1579886188.452,247432
1579886198.452,247434
1579886208.452,247434
1579886218.452,247434
1579886228.452,247434
1579886238.452,247435
1579886248.452,247436
1579886258.452,247436
1579886268.452,247436
1579886278.454,247438
1579886288.452,247438
1579886298.452,247438
1579886308.452,247439
1579886318.452,247439
1579886328.453,247439
1579886338.453,247441
1579886348.452,247442
1579886358.453,247442
1579886368.452,247442
1579886378.452,247442
1579886388.452,247444
1579886398.452,247444
1579886408.453,247444
1579886418.456,247445
1579886428.452,247446
1579886438.452,247447
1579886448.452,247447
1579886458.454,247447
1579886468.452,247448
1579886478.452,247449
1579886488.452,247451
1579886498.452,247451
1579886508.452,247451
1579886518.452,247451
1579886528.452,247453
1579886538.452,247453
1579886548.452,247453
1579886558.452,247453
1579886568.454,247453
1579886578.452,247454
1579886588.452,247454
1579886598.452,247454
1579886608.452,247456
1579886618.454,247456
1579886628.452,247456
1579886638.452,247456
1579886648.452,247456
1579886658.452,247459
1579886668.452,247461
1579886678.452,247461
1579886688.453,247461
1579886698.452,247462
1579886708.452,247462
1579886718.452,247462
1579886728.455,247463
1579886738.452,247463
1579886748.454,247463
1579886758.452,247463
1579886768.453,247463
1579886778.452,247463
1579886788.453,247465
1579886798.452,247465
1579886808.452,247466
1579886818.452,247467
1579886828.453,247468
1579886838.452,247469
1579886848.452,247469
1579886858.452,247470
1579886868.452,247470
1579886878.452,247472
1579886888.452,247473
1579886898.452,247473
1579886908.452,247474
1579886918.452,247474
1579886928.452,247476
1579886938.452,247476
1579886948.452,247476
1579886958.452,247476
1579886968.452,247477
1579886978.452,247477
1579886988.452,247478
1579886998.453,247479
1579887008.452,247481
1579887018.452,247482
1579887028.453,247484
1579887038.452,247484
1579887048.453,247484
1579887058.452,247484
1579887068.453,247487
1579887078.452,247489
1579887088.452,247491
1579887098.452,247492
1579887108.453,247492
1579887118.452,247493
1579887128.454,247493
1579887138.452,247494
1579887148.452,247494
1579887158.452,247495
1579887168.452,247496
1579887178.453,247496
1579887188.452,247496
1579887198.452,247496
1579887208.452,247497
1579887218.453,247498
1579887228.452,247499
1579887238.452,247499
1579887248.452,247500
1579887258.452,247500
1579887268.452,247502
1579887278.452,247504
1579887288.452,247504
1579887298.452,247504
1579887308.454,247505
1579887318.452,247505
1579887328.453,247505
1579887338.452,247506
1579887348.452,247507
1579887358.452,247507
1579887368.454,247509
1579887378.452,247510
1579887388.452,247510
1579887398.455,247511
1579887408.455,247511
1579887418.452,247512
1579887428.452,247513
1579887438.452,247514
1579887448.456,247515
1579887458.452,247516
1579887468.452,247516
1579887478.453,247516
1579887488.452,247517
1579887498.453,247517
1579887508.452,247517
1579887518.452,247518
1579887528.452,247518
1579887538.452,247519
1579887548.452,247519
1579887558.452,247519
1579887568.452,247519
1579887578.452,247519
1579887588.453,247519
1579887598.453,247520
1579887608.454,247521
1579887618.452,247522
1579887628.452,247522
1579887638.452,247522
1579887648.454,247528
1579887658.454,247529
1579887668.453,247530
1579887678.452,247530
1579887688.454,247531
1579887698.453,247532
1579887708.452,247533
1579887718.452,247534
1579887728.452,247534
1579887738.454,247536
1579887748.452,247536
1579887758.453,247536
1579887768.452,247536
1579887778.452,247538
1579887788.454,247539
1579887798.452,247539
1579887808.455,247539
1579887818.453,247540
1579887828.452,247542
1579887838.453,247542
1579887848.452,247543
1579887858.452,247543
1579887868.452,247544
1579887878.452,247545
1579887888.452,247545
1579887898.452,247546
1579887908.452,247546
1579887918.452,247546
1579887928.452,247547
1579887938.452,247547
1579887948.452,247547
1579887958.453,247548
1579887968.452,247548
1579887978.452,247548
1579887988.452,247549
1579887998.455,247550
1579888008.454,247550
1579888018.454,247552
1579888028.453,247553
1579888038.453,247554
1579888048.454,247554
1579888058.453,247554
1579888068.452,247555
1579888078.452,247555
1579888088.453,247555
1579888098.452,247555
1579888108.452,247556
1579888118.452,247556
1579888128.452,247556
1579888138.452,247556
1579888148.452,247556
1579888158.452,247556
1579888168.452,247557
1579888178.452,247558
1579888188.453,247558
1579888198.452,247559
1579888208.453,247559
1579888218.452,247559
1579888228.452,247561
1579888238.454,247561
1579888248.452,247561
1579888258.452,247563
1579888268.452,247563
1579888278.453,247563
1579888288.452,247564
1579888298.452,247565
1579888308.452,247566
1579888318.452,247566
1579888328.452,247566
1579888338.452,247566
1579888348.452,247566
1579888358.452,247568
1579888368.452,247570
1579888378.452,247574
1579888388.453,247576
1579888398.452,247576
1579888408.452,247576
1579888418.452,247577
1579888428.453,247577
1579888438.452,247577
1579888448.452,247578
1579888458.453,247579
1579888468.452,247579
1579888478.452,247580
1579888488.453,247580
1579888498.452,247580
1579888508.454,247580
1579888518.452,247582
1579888528.452,247582
1579888538.452,247582
1579888548.452,247582
1579888558.452,247583
1579888568.452,247583
1579888578.453,247584
1579888588.452,247584
1579888598.455,247585
1579888608.452,247585
1579888618.452,247586
1579888628.452,247588
1579888638.452,247588
1579888648.452,247588
1579888658.452,247588
1579888668.452,247590
1579888678.452,247591
1579888688.452,247591
1579888698.453,247592
1579888708.452,247593
1579888718.452,247594
1579888728.452,247595
1579888738.453,247598
1579888748.452,247600
