epoch,value
1580474539.657,20024
1580474549.637,20024
1580474559.637,20024
1580474569.637,20024
1580474579.637,20024
1580474589.637,20024
1580474599.637,20024
1580474609.638,20024
1580474619.639,20024
1580474629.638,20024
1580474639.637,20024
1580474649.637,20024
1580474659.637,20024
1580474669.637,20024
1580474679.638,20024
1580474689.639,20024
1580474699.638,20024
1580474709.638,20024
1580474719.638,20024
1580474729.639,20024
1580474739.637,20024
1580474749.637,20024
1580474759.637,20024
1580474769.637,20024
1580474779.637,20024
1580474789.637,20024
1580474799.638,20024
1580474809.637,20024
1580474819.639,20024
1580474829.637,20024
1580474839.637,20024
1580474849.637,20024
1580474859.637,20024
1580474869.637,20024
1580474879.637,20024
1580474889.639,20024
1580474899.638,20024
1580474909.637,20024
1580474919.637,20024
1580474929.637,20024
1580474939.637,20024
1580474949.637,20024
1580474959.637,20024
1580474969.638,20024
1580474979.638,20024
1580474989.638,20024
1580474999.637,20024
1580475009.637,20024
1580475019.637,20024
1580475029.640,20024
1580475039.638,20024
1580475049.637,20024
1580475059.638,20024
1580475069.640,20024
1580475079.638,20024
1580475089.637,20024
1580475099.637,20024
1580475109.637,20024
1580475119.638,20024
1580475129.637,20024
1580475139.637,20024
1580475149.638,20024
1580475159.637,20024
1580475169.638,20024
1580475179.639,20024
1580475189.639,20024
1580475199.638,20025
1580475209.637,20025
1580475219.637,20025
1580475229.637,20025
1580475239.637,20025
1580475249.637,20025
1580475259.637,20025
1580475269.637,20025
1580475279.637,20025
1580475289.638,20025
1580475299.637,20025
1580475309.637,20025
1580475319.637,20025
1580475329.638,20025
1580475339.637,20025
1580475349.638,20025
1580475359.637,20025
1580475369.637,20025
1580475379.637,20025
1580475389.637,20025
1580475399.638,20025
1580475409.637,20025
1580475419.637,20025
1580475429.639,20025
1580475439.640,20025
1580475449.637,20025
1580475459.638,20026
1580475469.637,20026
1580475479.637,20026
1580475489.637,20026
1580475499.637,20026
1580475509.638,20026
1580475519.637,20026
1580475529.637,20026
1580475539.637,20026
1580475549.637,20026
1580475559.637,20026
1580475569.637,20026
1580475579.637,20026
1580475589.637,20026
1580475599.637,20026
1580475609.638,20026
1580475619.637,20026
1580475629.639,20026
1580475639.639,20026
1580475649.637,20026
1580475659.637,20026
1580475669.637,20026
1580475679.637,20026
1580475689.637,20026
1580475699.638,20027
1580475709.638,20027
1580475719.638,20027
1580475729.637,20027
1580475739.637,20027
1580475749.637,20027
1580475759.638,20027
1580475769.637,20027
1580475779.640,20027
1580475789.637,20027
1580475799.641,20027
1580475809.637,20027
1580475819.637,20027
1580475829.637,20027
1580475839.639,20027
1580475849.637,20027
1580475859.637,20027
1580475869.637,20027
1580475879.637,20027
1580475889.637,20027
1580475899.637,20027
1580475909.637,20027
1580475919.637,20027
1580475929.638,20027
1580475939.637,20027
1580475949.637,20027
1580475959.637,20027
1580475969.637,20027
1580475979.637,20027
1580475989.637,20027
1580475999.640,20027
1580476009.637,20027
1580476019.637,20027
1580476029.637,20027
1580476039.637,20027
1580476049.637,20027
1580476059.637,20027
1580476069.637,20027
1580476079.637,20027
1580476089.637,20027
1580476099.638,20027
