epoch,value
1580215404.262,310932
1580215414.243,310932
1580215424.242,310932
1580215434.242,310932
1580215444.242,310933
1580215454.242,310934
1580215464.242,310934
1580215474.242,310934
1580215484.242,310935
1580215494.242,310935
1580215504.242,310935
1580215514.242,310936
1580215524.242,310936
1580215534.242,310937
1580215544.242,310937
1580215554.242,310937
1580215564.242,310938
1580215574.243,310939
1580215584.242,310940
1580215594.242,310940
1580215604.243,310941
1580215614.242,310943
1580215624.242,310944
1580215634.242,310944
1580215644.244,310944
1580215654.242,310944
1580215664.242,310944
1580215674.243,310946
1580215684.242,310946
1580215694.242,310946
1580215704.242,310947
1580215714.242,310948
1580215724.242,310948
1580215734.242,310949
1580215744.243,310950
1580215754.242,310951
1580215764.242,310952
1580215774.242,310953
1580215784.242,310954
1580215794.242,310954
1580215804.242,310956
1580215814.246,310957
1580215824.242,310957
1580215834.244,310958
1580215844.242,310958
1580215854.243,310958
1580215864.242,310959
1580215874.244,310959
1580215884.243,310959
1580215894.244,310959
1580215904.243,310959
1580215914.242,310959
1580215924.242,310962
1580215934.242,310963
1580215944.242,310963
1580215954.242,310963
1580215964.242,310963
1580215974.242,310963
1580215984.242,310963
1580215994.242,310963
1580216004.244,310964
1580216014.242,310964
1580216024.242,310964
1580216034.242,310964
1580216044.242,310965
1580216054.242,310965
1580216064.243,310965
1580216074.242,310966
1580216084.242,310966
1580216094.242,310966
1580216104.242,310968
1580216114.242,310968
1580216124.242,310968
1580216134.242,310968
1580216144.242,310971
1580216154.242,310971
1580216164.242,310972
1580216174.242,310973
1580216184.242,310973
1580216194.242,310974
1580216204.242,310974
1580216214.242,310974
1580216224.242,310974
1580216234.242,310974
1580216244.242,310975
1580216254.243,310977
1580216264.242,310979
1580216274.242,310979
1580216284.242,310980
1580216294.242,310980
1580216304.242,310980
1580216314.242,310980
1580216324.245,310980
1580216334.243,310982
1580216344.243,310982
1580216354.242,310982
1580216364.242,310982
1580216374.243,310984
1580216384.242,310984
1580216394.242,310984
1580216404.242,310984
1580216414.244,310984
1580216424.242,310985
1580216434.243,310986
1580216444.244,310987
1580216454.243,310987
1580216464.242,310987
1580216474.242,310988
1580216484.242,310988
1580216494.242,310990
1580216504.242,310990
1580216514.242,310990
1580216524.242,310990
1580216534.243,310990
1580216544.242,310990
1580216554.242,310991
1580216564.242,310991
1580216574.242,310991
1580216584.242,310993
1580216594.242,310993
1580216604.244,310993
1580216614.242,310993
1580216624.242,310994
1580216634.242,310994
1580216644.244,310995
1580216654.244,310995
1580216664.243,310995
1580216674.242,310995
1580216684.242,310996
1580216694.242,310996
1580216704.242,310997
1580216714.242,310997
1580216724.242,310998
1580216734.242,311000
1580216744.242,311002
1580216754.242,311002
1580216764.242,311003
1580216774.242,311004
1580216784.242,311005
1580216794.242,311006
1580216804.242,311007
1580216814.242,311007
1580216824.242,311009
1580216834.242,311009
1580216844.242,311010
1580216854.243,311010
1580216864.242,311010
1580216874.242,311010
1580216884.242,311010
1580216894.243,311010
1580216904.242,311011
1580216914.242,311011
1580216924.242,311011
1580216934.242,311012
1580216944.243,311012
1580216954.242,311012
1580216964.242,311014
1580216974.243,311014
1580216984.243,311014
1580216994.242,311014
1580217004.242,311014
1580217014.244,311014
1580217024.243,311014
1580217034.244,311015
1580217044.242,311015
1580217054.243,311016
1580217064.243,311017
1580217074.242,311017
1580217084.245,311017
1580217094.244,311018
1580217104.242,311018
1580217114.242,311018
1580217124.242,311019
1580217134.242,311020
1580217144.242,311020
1580217154.242,311020
1580217164.244,311021
1580217174.242,311022
1580217184.243,311023
1580217194.242,311024
1580217204.242,311024
1580217214.242,311025
1580217224.242,311025
1580217234.242,311026
1580217244.242,311027
1580217254.242,311027
1580217264.242,311029
1580217274.242,311030
1580217284.244,311030
1580217294.244,311031
1580217304.242,311032
1580217314.242,311033
1580217324.242,311033
1580217334.242,311034
1580217344.242,311034
1580217354.245,311035
1580217364.242,311035
1580217374.242,311037
1580217384.242,311039
1580217394.242,311039
1580217404.242,311040
1580217414.242,311040
1580217424.242,311040
1580217434.244,311040
1580217444.242,311041
1580217454.243,311041
1580217464.242,311042
1580217474.242,311042
1580217484.242,311042
1580217494.242,311043
1580217504.242,311044
1580217514.243,311045
1580217524.242,311045
1580217534.242,311046
1580217544.242,311046
1580217554.243,311047
1580217564.243,311048
1580217574.242,311048
1580217584.242,311048
1580217594.243,311048
1580217604.242,311048
1580217614.242,311050
1580217624.242,311051
1580217634.242,311051
1580217644.242,311051
1580217654.242,311052
1580217664.242,311052
1580217674.245,311052
1580217684.242,311053
1580217694.242,311053
1580217704.242,311054
1580217714.242,311054
1580217724.242,311056
1580217734.244,311056
1580217744.242,311058
1580217754.242,311058
1580217764.242,311058
1580217774.243,311060
1580217784.242,311062
1580217794.243,311062
1580217804.242,311062
1580217814.242,311063
1580217824.242,311063
1580217834.242,311063
1580217844.242,311064
1580217854.242,311064
1580217864.242,311066
1580217874.242,311066
1580217884.242,311067
1580217894.242,311068
1580217904.242,311068
1580217914.242,311068
1580217924.242,311068
1580217934.242,311069
1580217944.242,311069
1580217954.242,311073
1580217964.242,311073
1580217974.245,311073
1580217984.242,311073
1580217994.242,311073
1580218004.242,311073
1580218014.242,311073
1580218024.242,311075
1580218034.242,311075
1580218044.244,311075
1580218054.242,311075
1580218064.242,311075
1580218074.244,311075
1580218084.245,311075
1580218094.242,311075
1580218104.242,311075
1580218114.242,311075
1580218124.242,311076
1580218134.245,311076
1580218144.242,311076
1580218154.242,311076
1580218164.242,311080
1580218174.242,311080
