epoch,value
1580212397.215,310741
1580212407.197,310742
1580212417.197,310742
1580212427.197,310742
1580212437.198,310743
1580212447.197,310743
1580212457.197,310743
1580212467.197,310744
1580212477.197,310744
1580212487.196,310745
1580212497.197,310745
1580212507.197,310745
1580212517.196,310746
1580212527.197,310747
1580212537.197,310748
1580212547.198,310748
1580212557.196,310748
1580212567.197,310749
1580212577.200,310750
1580212587.197,310750
1580212597.197,310750
1580212607.197,310750
1580212617.198,310750
1580212627.198,310751
1580212637.197,310751
1580212647.197,310753
1580212657.197,310753
1580212667.196,310754
1580212677.196,310756
1580212687.197,310756
1580212697.197,310757
1580212707.196,310757
1580212717.197,310760
1580212727.197,310760
1580212737.196,310760
1580212747.197,310761
1580212757.196,310762
1580212767.197,310762
1580212777.196,310762
1580212787.199,310762
1580212797.196,310763
1580212807.197,310763
1580212817.197,310765
1580212827.196,310766
1580212837.199,310766
1580212847.197,310766
1580212857.197,310766
1580212867.197,310766
1580212877.197,310767
1580212887.197,310767
1580212897.197,310768
1580212907.197,310768
1580212917.198,310768
1580212927.197,310768
1580212937.197,310769
1580212947.197,310770
1580212957.198,310770
1580212967.198,310771
1580212977.197,310772
1580212987.197,310774
1580212997.197,310774
1580213007.196,310774
1580213017.197,310774
1580213027.197,310774
1580213037.197,310775
1580213047.197,310775
1580213057.198,310776
1580213067.198,310778
1580213077.197,310778
1580213087.197,310778
1580213097.197,310778
1580213107.197,310778
1580213117.197,310780
1580213127.196,310780
1580213137.197,310780
1580213147.197,310780
1580213157.198,310781
1580213167.197,310781
1580213177.197,310781
1580213187.197,310782
1580213197.197,310782
1580213207.197,310783
1580213217.197,310784
1580213227.197,310784
1580213237.196,310784
1580213247.199,310785
1580213257.197,310786
1580213267.197,310786
1580213277.196,310786
1580213287.199,310787
1580213297.199,310787
1580213307.197,310788
1580213317.197,310788
1580213327.197,310788
1580213337.197,310788
1580213347.197,310788
1580213357.197,310788
1580213367.197,310789
1580213377.197,310789
1580213387.197,310790
1580213397.197,310790
1580213407.197,310790
1580213417.199,310791
1580213427.197,310793
1580213437.197,310793
1580213447.197,310793
1580213457.197,310793
1580213467.198,310793
1580213477.197,310793
1580213487.197,310793
1580213497.198,310793
1580213507.197,310793
1580213517.198,310793
1580213527.197,310794
1580213537.197,310794
1580213547.197,310796
1580213557.197,310797
1580213567.197,310797
1580213577.196,310798
1580213587.198,310799
1580213597.197,310800
1580213607.197,310801
1580213617.198,310801
1580213627.197,310801
1580213637.199,310801
1580213647.197,310803
1580213657.197,310803
1580213667.198,310803
1580213677.198,310804
1580213687.197,310804
1580213697.197,310804
1580213707.197,310805
1580213717.197,310807
1580213727.197,310807
1580213737.196,310808
1580213747.197,310808
1580213757.197,310808
1580213767.197,310809
1580213777.198,310811
1580213787.197,310812
1580213797.199,310812
1580213807.197,310812
1580213817.198,310814
1580213827.197,310815
1580213837.197,310815
1580213847.197,310816
1580213857.197,310816
1580213867.197,310817
1580213877.197,310817
1580213887.197,310817
1580213897.197,310818
1580213907.197,310820
1580213917.197,310820
1580213927.197,310821
1580213937.197,310822
1580213947.198,310822
1580213957.197,310823
1580213967.197,310824
1580213977.197,310825
1580213987.197,310825
1580213997.198,310825
1580214007.197,310825
1580214017.196,310826
1580214027.197,310827
1580214037.197,310827
1580214047.197,310827
1580214057.197,310829
1580214067.200,310830
1580214077.197,310831
1580214087.197,310831
1580214097.197,310832
1580214107.197,310832
1580214117.197,310833
1580214127.197,310833
1580214137.197,310834
1580214147.197,310835
1580214157.196,310836
1580214167.199,310836
1580214177.196,310836
1580214187.196,310836
1580214197.197,310838
1580214207.199,310839
1580214217.197,310839
1580214227.197,310840
1580214237.197,310840
1580214247.197,310840
1580214257.198,310841
1580214267.197,310843
1580214277.197,310843
1580214287.197,310843
1580214297.197,310844
1580214307.197,310845
1580214317.197,310845
1580214327.197,310846
1580214337.198,310846
1580214347.198,310846
1580214357.197,310846
1580214367.196,310846
1580214377.197,310846
1580214387.197,310846
1580214397.197,310848
1580214407.197,310848
1580214417.196,310848
1580214427.199,310848
1580214437.197,310850
1580214447.198,310850
1580214457.197,310851
1580214467.197,310851
1580214477.199,310852
1580214487.196,310852
1580214497.197,310853
1580214507.197,310853
1580214517.198,310855
1580214527.197,310855
1580214537.197,310855
1580214547.197,310855
1580214557.197,310855
1580214567.197,310856
1580214577.197,310856
1580214587.197,310856
1580214597.197,310858
1580214607.198,310858
1580214617.197,310858
1580214627.197,310860
1580214637.197,310860
1580214647.197,310861
1580214657.197,310862
1580214667.197,310863
1580214677.197,310865
1580214687.197,310866
1580214697.198,310866
1580214707.197,310867
1580214717.197,310868
1580214727.197,310870
1580214737.197,310872
1580214747.197,310872
1580214757.198,310872
1580214767.197,310872
1580214777.197,310874
1580214787.196,310874
1580214797.197,310876
1580214807.198,310879
1580214817.196,310879
1580214827.197,310879
1580214837.197,310879
1580214847.197,310879
1580214857.197,310880
1580214867.197,310880
1580214877.197,310881
1580214887.197,310882
1580214897.197,310882
1580214907.197,310882
1580214917.197,310883
1580214927.197,310884
1580214937.197,310884
1580214947.197,310886
1580214957.198,310886
1580214967.197,310886
1580214977.197,310887
1580214987.197,310887
1580214997.197,310887
1580215007.196,310889
1580215017.196,310889
1580215027.198,310890
1580215037.197,310890
1580215047.197,310891
1580215057.196,310892
1580215067.197,310892
1580215077.199,310892
1580215087.196,310894
1580215097.197,310894
1580215107.198,310895
1580215117.197,310897
1580215127.197,310897
1580215137.196,310897
1580215147.197,310897
1580215157.197,310898
1580215167.197,310899
