epoch,value
1579803201.600,7976
1579803211.579,7976
1579803221.577,7976
1579803231.576,7976
1579803241.575,7976
1579803251.575,7976
1579803261.577,7976
1579803271.575,7976
1579803281.577,7976
1579803291.576,7976
1579803301.579,7976
1579803311.575,7976
1579803321.575,7976
1579803331.575,7976
1579803341.575,7976
1579803351.575,7976
1579803361.575,7976
1579803371.575,7976
1579803381.575,7976
1579803391.575,7976
1579803401.575,7976
1579803411.575,7976
1579803421.575,7976
1579803431.575,7976
1579803441.575,7976
1579803451.575,7976
1579803461.577,7976
1579803471.575,7976
1579803481.575,7976
1579803491.575,7976
1579803501.575,7976
1579803511.575,7976
1579803521.575,7976
1579803531.575,7976
1579803541.575,7976
1579803551.575,7976
1579803561.576,7976
1579803571.575,7976
1579803581.575,7976
1579803591.575,7976
1579803601.576,7976
1579803611.575,7976
1579803621.577,7976
1579803631.576,7976
1579803641.575,7976
1579803651.576,7976
1579803661.575,7976
1579803671.575,7976
1579803681.575,7976
1579803691.575,7976
1579803701.575,7976
1579803711.575,7976
1579803721.575,7976
1579803731.575,7976
1579803741.575,7976
1579803751.575,7976
1579803761.575,7976
1579803771.575,7976
1579803781.575,7976
1579803791.576,7976
1579803801.575,7976
1579803811.575,7976
1579803821.575,7976
1579803831.575,7976
1579803841.576,7976
1579803851.577,7976
1579803861.576,7976
1579803871.576,7976
1579803881.575,7976
1579803891.576,7976
1579803901.575,7976
1579803911.575,7976
1579803921.576,7976
1579803931.575,7976
1579803941.575,7976
1579803951.575,7976
1579803961.575,7976
1579803971.575,7976
1579803981.577,7976
1579803991.575,7976
1579804001.576,7976
1579804011.575,7976
1579804021.575,7976
1579804031.576,7976
1579804041.575,7976
1579804051.575,7976
1579804061.575,7976
1579804071.575,7976
1579804081.575,7976
1579804091.575,7976
1579804101.578,7976
1579804111.576,7976
1579804121.575,7977
1579804131.575,7977
1579804141.575,7977
1579804151.575,7977
1579804161.575,7977
1579804171.575,7977
1579804181.575,7977
1579804191.575,7977
1579804201.575,7977
1579804211.575,7977
1579804221.575,7977
1579804231.576,7977
1579804241.575,7977
1579804251.575,7977
1579804261.575,7977
1579804271.575,7977
1579804281.575,7977
1579804291.575,7977
1579804301.575,7977
1579804311.575,7977
1579804321.575,7977
1579804331.575,7977
1579804341.575,7977
1579804351.576,7977
1579804361.575,7977
1579804371.575,7977
1579804381.575,7977
1579804391.575,7977
1579804401.575,7977
1579804411.575,7977
1579804421.575,7977
1579804431.575,7977
1579804441.575,7977
1579804451.575,7977
1579804461.575,7977
1579804471.575,7977
1579804481.575,7977
1579804491.575,7977
1579804501.575,7977
1579804511.575,7977
1579804521.575,7977
1579804531.575,7977
1579804541.578,7977
1579804551.575,7977
1579804561.575,7977
1579804571.575,7977
1579804581.576,7977
1579804591.575,7977
1579804601.575,7977
1579804611.575,7977
1579804621.575,7977
1579804631.575,7977
1579804641.575,7977
1579804651.576,7977
1579804661.575,7977
1579804671.575,7977
1579804681.575,7977
1579804691.575,7977
1579804701.575,7977
1579804711.575,7977
1579804721.575,7977
1579804731.576,7977
1579804741.575,7977
1579804751.575,7977
1579804761.576,7977
