epoch,value
1579788687.675,37778
1579788697.656,37778
1579788707.655,37778
1579788717.655,37778
1579788727.655,37780
1579788737.655,37780
1579788747.655,37780
1579788757.655,37780
1579788767.655,37780
1579788777.655,37780
1579788787.655,37780
1579788797.655,37780
1579788807.655,37780
1579788817.656,37780
1579788827.656,37780
1579788837.655,37780
1579788847.655,37780
1579788857.655,37782
1579788867.656,37782
1579788877.655,37782
1579788887.655,37782
1579788897.656,37782
1579788907.656,37782
1579788917.655,37782
1579788927.657,37782
1579788937.655,37782
1579788947.656,37782
1579788957.655,37782
1579788967.656,37782
1579788977.655,37782
1579788987.655,37782
1579788997.655,37782
1579789007.656,37782
1579789017.655,37784
1579789027.655,37784
1579789037.655,37784
1579789047.655,37784
1579789057.655,37784
1579789067.656,37784
1579789077.656,37784
1579789087.657,37784
1579789097.655,37784
1579789107.655,37784
1579789117.655,37784
1579789127.655,37784
1579789137.655,37784
1579789147.656,37784
1579789157.655,37784
1579789167.657,37784
1579789177.655,37784
1579789187.656,37784
1579789197.655,37784
1579789207.656,37784
1579789217.657,37784
1579789227.655,37784
1579789237.655,37784
1579789247.655,37784
1579789257.655,37784
1579789267.655,37785
1579789277.655,37785
1579789287.655,37785
1579789297.657,37785
1579789307.656,37785
1579789317.655,37785
1579789327.655,37786
1579789337.658,37786
1579789347.655,37787
1579789357.655,37790
1579789367.655,37790
1579789377.655,37790
1579789387.656,37790
1579789397.655,37790
1579789407.655,37790
1579789417.655,37790
1579789427.655,37790
1579789437.657,37790
1579789447.658,37790
1579789457.656,37790
1579789467.655,37790
1579789477.655,37790
1579789487.655,37790
1579789497.655,37790
1579789507.655,37790
1579789517.655,37790
1579789527.657,37790
1579789537.655,37790
1579789547.657,37791
1579789557.656,37792
1579789567.655,37792
1579789577.656,37793
1579789587.656,37793
1579789597.655,37793
1579789607.655,37794
1579789617.658,37794
1579789627.655,37794
1579789637.657,37794
1579789647.655,37794
1579789657.655,37794
1579789667.655,37794
1579789677.655,37794
1579789687.655,37794
1579789697.656,37794
1579789707.656,37794
1579789717.655,37795
1579789727.656,37796
1579789737.655,37796
1579789747.655,37796
1579789757.655,37797
1579789767.655,37797
1579789777.656,37797
1579789787.658,37797
1579789797.655,37797
1579789807.655,37797
1579789817.655,37797
1579789827.655,37798
1579789837.655,37798
1579789847.655,37798
1579789857.656,37798
1579789867.655,37798
1579789877.656,37798
1579789887.655,37798
1579789897.655,37798
1579789907.656,37798
1579789917.656,37798
1579789927.655,37798
1579789937.657,37798
1579789947.656,37798
1579789957.656,37798
1579789967.655,37798
1579789977.656,37798
1579789987.657,37798
1579789997.656,37799
1579790007.655,37799
1579790017.655,37799
1579790027.655,37799
1579790037.655,37800
1579790047.656,37802
1579790057.656,37802
1579790067.656,37802
1579790077.656,37803
1579790087.657,37803
1579790097.655,37803
1579790107.657,37803
1579790117.656,37803
1579790127.657,37803
1579790137.655,37803
1579790147.656,37803
1579790157.656,37803
1579790167.655,37803
1579790177.655,37803
1579790187.655,37804
1579790197.655,37804
1579790207.655,37806
1579790217.655,37806
1579790227.655,37807
1579790237.655,37807
1579790247.656,37807
