epoch,value
1579806806.873,7985
1579806816.852,7985
1579806826.852,7985
1579806836.851,7985
1579806846.852,7985
1579806856.851,7985
1579806866.851,7985
1579806876.852,7985
1579806886.851,7985
1579806896.853,7985
1579806906.853,7985
1579806916.852,7985
1579806926.852,7985
1579806936.852,7985
1579806946.851,7985
1579806956.854,7985
1579806966.851,7985
1579806976.852,7985
1579806986.853,7985
1579806996.851,7985
1579807006.851,7985
1579807016.851,7985
1579807026.852,7985
1579807036.852,7985
1579807046.852,7986
1579807056.852,7986
1579807066.851,7986
1579807076.851,7986
1579807086.852,7986
1579807096.852,7986
1579807106.851,7986
1579807116.852,7986
1579807126.851,7986
1579807136.853,7986
1579807146.851,7986
1579807156.852,7986
1579807166.853,7986
1579807176.853,7986
1579807186.852,7986
1579807196.851,7986
1579807206.851,7986
1579807216.852,7986
1579807226.852,7986
1579807236.852,7986
1579807246.851,7986
1579807256.852,7986
1579807266.851,7986
1579807276.851,7986
1579807286.852,7986
1579807296.852,7986
1579807306.851,7986
1579807316.853,7987
1579807326.853,7987
1579807336.852,7987
1579807346.852,7987
1579807356.852,7987
1579807366.852,7987
1579807376.852,7987
1579807386.851,7987
1579807396.853,7987
1579807406.852,7988
1579807416.852,7988
1579807426.852,7988
1579807436.852,7988
1579807446.853,7988
1579807456.851,7988
1579807466.853,7988
1579807476.852,7988
1579807486.852,7988
1579807496.852,7988
1579807506.852,7988
1579807516.852,7988
1579807526.853,7988
1579807536.852,7988
1579807546.852,7988
1579807556.851,7988
1579807566.851,7988
1579807576.851,7988
1579807586.851,7988
1579807596.852,7988
1579807606.852,7988
1579807616.852,7988
1579807626.851,7988
1579807636.853,7988
1579807646.852,7988
1579807656.851,7988
1579807666.851,7988
1579807676.852,7988
1579807686.852,7988
1579807696.851,7988
1579807706.852,7988
1579807716.852,7988
1579807726.853,7988
1579807736.851,7988
1579807746.852,7988
1579807756.851,7988
1579807766.851,7988
1579807776.851,7988
1579807786.851,7988
1579807796.852,7988
1579807806.852,7988
1579807816.851,7988
1579807826.851,7988
1579807836.852,7988
1579807846.851,7988
1579807856.851,7988
1579807866.852,7988
1579807876.853,7988
1579807886.853,7988
1579807896.852,7988
1579807906.851,7988
1579807916.853,7988
1579807926.851,7988
1579807936.851,7988
1579807946.852,7988
1579807956.851,7988
1579807966.851,7988
1579807976.852,7988
1579807986.852,7988
1579807996.852,7988
1579808006.851,7988
1579808016.853,7988
1579808026.852,7988
1579808036.851,7988
1579808046.851,7988
1579808056.852,7988
1579808066.852,7988
1579808076.851,7988
1579808086.851,7988
1579808096.851,7988
1579808106.852,7988
1579808116.853,7988
1579808126.852,7988
1579808136.851,7988
1579808146.852,7988
1579808156.852,7988
1579808166.851,7989
1579808176.852,7989
1579808186.852,7989
1579808196.852,7989
1579808206.854,7989
1579808216.854,7989
1579808226.851,7989
1579808236.852,7989
1579808246.852,7989
1579808256.853,7989
1579808266.853,7989
1579808276.852,7989
1579808286.851,7989
1579808296.853,7989
1579808306.851,7989
1579808316.851,7989
1579808326.851,7989
1579808336.852,7989
1579808346.852,7989
1579808356.853,7989
1579808366.851,7989
