epoch,value
1579795427.859,0
1579795437.865,0
1579795447.859,0
1579795457.859,0
1579795467.859,0
1579795477.859,0
1579795487.859,0
1579795497.859,0
1579795507.859,0
1579795517.859,0
1579795537.859,0
1579795547.859,0
1579795557.859,0
1579795567.859,0
1579795577.859,0
1579795587.859,0
1579795597.859,0
1579795607.859,0
1579795617.859,0
1579795627.859,1
1579795637.859,1
1579795647.859,1
1579795657.859,1
1579795667.859,1
1579795677.859,1
1579795687.859,1
1579795697.859,1
1579795707.859,1
1579795717.859,1
1579795727.859,1
1579795737.859,1
1579795747.859,1
1579795757.859,1
1579795767.859,1
1579795777.859,1
1579795787.859,1
1579795797.859,2
1579795807.859,2
1579795817.859,2
1579795827.859,2
1579795837.859,2
1579795847.859,2
1579795857.859,2
1579795867.859,2
1579795877.859,2
1579795887.859,2
1579795897.859,2
1579795907.859,2
1579795917.859,2
1579795927.859,2
1579795937.859,2
1579795947.859,3
1579795957.859,3
1579795967.859,3
1579795977.859,3
1579795987.859,3
1579795997.859,3
1579796007.859,3
1579796017.859,3
1579796027.859,3
1579796037.859,3
1579796047.859,3
1579796057.859,3
1579796067.859,3
1579796077.859,3
1579796087.859,3
1579796097.859,3
1579796107.859,3
1579796117.859,4
1579796127.859,4
1579796137.859,4
1579796147.859,4
1579796157.859,4
1579796167.859,4
1579796177.859,4
1579796197.859,4
1579796207.859,4
1579796217.859,5
1579796227.859,5
1579796237.859,5
1579796247.859,5
1579796257.859,5
1579796267.859,5
1579796277.859,5
1579796287.859,5
1579796297.859,5
1579796307.859,5
1579796317.859,5
1579796327.859,5
1579796337.859,5
1579796347.859,5
1579796357.859,5
1579796367.859,6
1579796377.859,6
1579796397.859,6
1579796407.859,6
1579796417.859,6
1579796427.859,6
1579796437.859,6
1579796447.859,6
1579796457.859,6
1579796467.859,6
1579796477.859,6
1579796487.859,6
1579796497.859,6
1579796507.859,6
1579796517.859,6
1579796527.859,6
1579796537.859,6
1579796547.859,6
1579796557.859,6
1579796567.859,6
1579796577.859,6
1579796587.859,6
1579796597.859,6
1579796607.859,6
1579796617.859,6
1579796627.859,6
1579796647.859,6
1579796657.859,7
1579796667.859,7
1579796677.859,7
1579796687.859,7
1579796697.859,7
1579796707.859,7
1579796717.859,7
1579796727.859,7
1579796737.859,7
1579796747.859,7
1579796757.859,7
1579796767.859,7
1579796777.859,7
1579796787.859,7
1579796797.859,7
1579796807.859,7
1579796817.859,7
1579796827.859,7
1579796837.859,7
1579796847.859,7
1579796857.859,7
1579796867.859,8
1579796877.859,8
1579796887.859,8
1579796897.859,8
1579796907.859,8
1579796917.859,8
1579796927.859,8
1579796937.859,8
1579796947.859,8
1579796957.859,8
