epoch,value
1579933497.430,252827
1579933507.409,252827
1579933517.409,252827
1579933527.411,252827
1579933537.409,252827
1579933547.409,252827
1579933557.409,252832
1579933567.409,252843
1579933577.409,252862
1579933587.409,252882
1579933597.409,252910
1579933607.409,252932
1579933617.409,252955
1579933627.409,252976
1579933637.409,252988
1579933647.411,253007
1579933657.409,253034
1579933667.409,253055
1579933677.409,253082
1579933687.409,253113
1579933697.410,253138
1579933707.410,253160
1579933717.410,253179
1579933727.410,253205
1579933737.409,253231
1579933747.409,253254
1579933757.409,253280
1579933767.409,253308
1579933777.409,253338
1579933787.409,253367
1579933797.410,253392
1579933807.409,253429
1579933817.409,253462
1579933827.409,253497
1579933837.409,253531
1579933847.409,253552
1579933857.409,253572
1579933867.412,253605
1579933877.409,253635
1579933887.411,253657
1579933897.409,253684
1579933907.409,253717
1579933917.410,253750
1579933927.409,253778
1579933937.409,253802
1579933947.409,253829
1579933957.412,253861
1579933967.409,253891
1579933977.409,253924
1579933987.409,253956
1579933997.409,253993
1579934007.409,254040
1579934017.410,254076
1579934027.409,254096
1579934037.410,254126
1579934047.409,254156
1579934057.410,254182
1579934067.409,254215
1579934077.409,254249
1579934087.409,254276
1579934097.409,254309
1579934107.409,254332
1579934117.410,254356
1579934127.409,254382
1579934137.409,254400
1579934147.409,254424
1579934157.410,254454
1579934167.412,254483
1579934177.409,254506
1579934187.410,254528
1579934197.410,254559
1579934207.409,254580
1579934217.409,254610
1579934227.409,254632
1579934237.409,254666
1579934247.409,254705
1579934257.409,254740
1579934267.409,254774
1579934277.409,254810
1579934287.410,254844
1579934297.409,254881
1579934307.410,254909
1579934317.409,254941
1579934327.410,254967
1579934337.409,255000
1579934347.409,255038
1579934357.409,255064
1579934367.409,255095
1579934377.409,255095
1579934387.409,255095
1579934397.409,255095
1579934407.410,255096
1579934417.411,255097
1579934427.409,255098
1579934437.409,255099
1579934447.409,255099
1579934457.411,255099
1579934467.409,255099
1579934477.411,255100
1579934487.409,255101
1579934497.409,255102
1579934507.409,255102
1579934517.409,255102
1579934527.409,255102
1579934537.409,255102
1579934547.409,255104
1579934557.409,255105
1579934567.409,255105
1579934577.411,255107
1579934587.409,255107
1579934597.410,255108
1579934607.409,255108
1579934617.409,255110
1579934627.409,255110
1579934637.409,255110
1579934647.409,255112
1579934657.409,255112
1579934667.409,255112
1579934677.409,255112
1579934687.412,255112
1579934697.409,255113
1579934707.409,255114
1579934717.409,255114
1579934727.409,255115
1579934737.409,255115
1579934747.409,255116
1579934757.409,255116
1579934767.409,255116
1579934777.409,255118
1579934787.409,255118
1579934797.409,255118
1579934807.409,255120
1579934817.409,255120
1579934827.409,255121
1579934837.409,255122
1579934847.409,255122
1579934857.409,255124
1579934867.411,255125
1579934877.409,255126
1579934887.409,255126
1579934897.409,255126
1579934907.410,255126
1579934917.409,255126
1579934927.409,255127
1579934937.409,255128
1579934947.409,255128
1579934957.409,255129
1579934967.411,255130
1579934977.410,255130
1579934987.409,255131
1579934997.409,255131
1579935007.410,255131
1579935017.409,255132
1579935027.409,255132
1579935037.409,255133
1579935047.409,255134
1579935057.409,255136
1579935067.409,255136
1579935077.409,255137
1579935087.409,255137
1579935097.409,255137
1579935107.409,255137
1579935117.410,255137
1579935127.409,255139
1579935137.409,255140
1579935147.409,255140
1579935157.410,255140
1579935167.409,255141
1579935177.409,255142
1579935187.409,255142
1579935197.410,255144
1579935207.409,255144
1579935217.409,255144
1579935227.409,255145
1579935237.409,255146
1579935247.409,255146
1579935257.409,255146
1579935267.409,255146
1579935277.409,255146
1579935287.409,255147
1579935297.409,255148
1579935307.409,255149
1579935317.409,255150
1579935327.409,255151
1579935337.409,255151
1579935347.409,255152
1579935357.410,255152
1579935367.409,255152
1579935377.410,255153
1579935387.410,255154
1579935397.409,255154
1579935407.409,255155
1579935417.412,255156
1579935427.409,255156
1579935437.409,255156
1579935447.409,255156
1579935457.409,255156
1579935467.409,255157
1579935477.409,255158
1579935487.409,255160
1579935497.409,255160
1579935507.410,255162
1579935517.410,255162
1579935527.411,255164
1579935537.409,255165
1579935547.409,255166
1579935557.409,255166
1579935567.409,255166
1579935577.412,255166
1579935587.409,255166
1579935597.409,255168
1579935607.409,255169
1579935617.409,255169
1579935627.410,255170
1579935637.409,255170
1579935647.409,255170
1579935657.409,255172
1579935667.409,255172
1579935677.409,255173
1579935687.409,255173
1579935697.410,255173
1579935707.409,255173
1579935717.409,255174
1579935727.409,255174
1579935737.409,255175
1579935747.409,255176
1579935757.409,255176
1579935767.409,255176
1579935777.409,255177
1579935787.410,255177
1579935797.409,255178
1579935807.409,255178
1579935817.409,255179
1579935827.410,255179
1579935837.409,255180
1579935847.409,255181
1579935857.409,255181
1579935867.409,255182
1579935877.409,255182
1579935887.410,255182
1579935897.409,255183
1579935907.410,255183
1579935917.409,255184
1579935927.409,255184
1579935937.409,255184
1579935947.409,255186
1579935957.409,255186
1579935967.409,255186
1579935977.409,255187
1579935987.409,255187
1579935997.409,255187
1579936007.409,255188
1579936017.409,255189
1579936027.409,255189
1579936037.409,255190
1579936047.409,255191
1579936057.409,255191
1579936067.409,255191
1579936077.409,255191
1579936087.409,255192
1579936097.410,255192
1579936107.409,255194
1579936117.409,255194
1579936127.409,255194
1579936137.409,255196
1579936147.412,255197
1579936157.409,255198
1579936167.409,255199
1579936177.409,255200
1579936187.409,255200
1579936197.411,255201
1579936207.409,255201
1579936217.409,255202
1579936227.409,255203
1579936237.409,255203
1579936247.409,255203
1579936257.409,255204
