epoch,value
1580335332.765,0
1580335342.765,0
1580335352.765,0
1580335362.765,0
1580335372.765,0
1580335382.765,0
1580335392.765,0
1580335402.765,0
1580335412.765,0
1580335422.765,0
1580335432.765,0
1580335442.765,0
1580335452.765,0
1580335462.765,0
1580335472.765,0
1580335482.773,0
1580335492.765,0
1580335502.765,0
1580335512.765,0
1580335522.765,0
1580335532.765,0
1580335542.765,0
1580335552.765,0
1580335562.765,0
1580335572.765,0
1580335582.765,0
1580335592.765,0
1580335602.765,0
1580335612.765,0
1580335622.765,0
1580335632.765,0
1580335642.765,0
1580335652.765,0
1580335662.765,0
1580335672.765,0
1580335682.765,0
1580335692.765,0
1580335702.765,0
1580335712.765,0
1580335722.765,0
1580335732.765,0
1580335742.765,0
1580335752.765,0
1580335762.765,0
1580335772.765,0
1580335782.765,0
1580335792.765,0
1580335802.765,0
1580335812.765,0
1580335822.765,1
1580335832.765,1
1580335842.765,1
1580335852.765,1
1580335862.765,1
1580335872.765,1
1580335882.765,1
1580335892.765,1
1580335902.765,1
1580335912.765,1
1580335922.765,1
1580335932.765,1
1580335942.765,1
1580335952.765,1
1580335962.765,1
1580335972.765,1
1580335982.765,1
1580335992.765,1
1580336002.765,1
1580336012.765,1
1580336022.765,1
1580336032.765,1
1580336042.765,1
1580336052.765,1
1580336062.765,1
1580336072.765,1
1580336082.765,1
1580336092.765,1
1580336102.765,1
1580336112.765,1
1580336122.765,1
1580336132.765,1
1580336152.765,1
1580336162.765,1
1580336172.765,1
1580336182.765,1
1580336192.765,1
1580336202.765,1
1580336212.765,1
1580336222.765,1
1580336232.765,1
1580336242.765,1
1580336252.765,1
1580336262.765,1
1580336272.765,1
1580336282.765,1
1580336292.765,1
1580336302.765,1
1580336312.765,1
1580336322.765,1
1580336332.765,1
1580336342.765,1
1580336352.765,1
1580336362.765,1
1580336372.765,1
1580336382.765,1
1580336392.765,1
1580336402.765,1
1580336412.765,1
1580336422.765,2
1580336432.765,2
1580336442.765,2
1580336452.765,2
1580336462.765,2
1580336472.765,2
1580336482.765,2
1580336492.765,2
1580336502.765,2
1580336512.765,2
1580336522.765,2
1580336532.765,2
1580336542.765,2
1580336552.765,2
1580336562.765,2
1580336572.765,2
1580336592.765,2
1580336602.765,2
1580336612.765,2
1580336622.765,2
1580336632.765,2
1580336642.765,2
1580336652.765,2
1580336662.765,2
1580336672.765,2
1580336682.765,2
1580336692.765,2
1580336702.765,2
1580336712.765,2
1580336722.765,2
1580336732.765,2
1580336742.765,2
1580336752.765,2
1580336762.765,2
1580336772.765,2
1580336782.765,2
1580336792.765,2
1580336802.765,2
1580336812.765,2
1580336822.765,3
1580336832.765,3
1580336842.765,3
1580336852.765,3
1580336862.765,3
1580336872.765,3
1580336882.765,3
1580336892.765,3
1580336902.765,3
1580336912.765,3
1580336922.765,3
1580336932.765,3
1580336942.769,3
1580336952.765,3
1580336962.765,3
1580336972.765,3
1580336982.765,3
1580336992.765,3
1580337002.765,3
1580337012.765,3
1580337022.765,3
1580337032.765,3
1580337042.765,3
1580337052.765,3
1580337062.765,3
1580337072.765,3
1580337082.765,3
1580337092.765,3
1580337102.765,3
1580337112.765,3
1580337122.765,3
1580337132.765,3
1580337142.765,3
1580337152.765,3
1580337162.765,3
1580337172.765,3
1580337182.765,3
1580337192.765,3
1580337202.765,3
1580337222.765,3
1580337232.765,3
1580337242.765,3
1580337252.765,3
1580337262.765,3
1580337272.765,3
1580337282.765,3
1580337292.765,3
1580337302.765,3
1580337312.765,3
1580337322.765,3
1580337332.765,4
1580337342.765,4
1580337352.765,4
1580337362.765,4
1580337372.765,4
1580337382.765,4
1580337392.765,4
1580337402.765,4
1580337412.765,4
1580337422.765,4
1580337432.765,4
1580337442.765,4
1580337452.765,4
1580337462.765,4
1580337472.765,4
1580337482.765,4
1580337492.765,4
1580337502.765,4
1580337512.765,4
1580337522.765,4
1580337532.765,4
1580337542.765,4
1580337552.765,4
1580337562.765,4
1580337572.765,4
1580337582.765,4
1580337592.765,4
1580337602.765,4
1580337612.765,4
1580337622.765,4
1580337632.765,4
1580337642.765,4
1580337652.765,4
1580337662.765,4
1580337672.765,4
1580337682.765,4
1580337692.765,4
1580337702.765,4
1580337712.765,4
1580337722.765,5
1580337732.765,5
1580337742.765,5
1580337752.765,5
1580337762.765,5
1580337772.765,5
1580337782.765,5
1580337792.765,5
1580337802.765,5
1580337812.765,5
1580337822.765,5
1580337832.765,5
1580337842.765,5
1580337852.765,5
1580337862.765,5
1580337872.765,5
1580337882.765,5
1580337892.765,5
1580337902.765,5
1580337912.765,5
1580337922.765,5
1580337932.765,5
1580337942.765,5
1580337952.765,5
1580337962.765,5
1580337972.765,5
1580337982.765,5
1580337992.765,5
1580338002.765,5
1580338012.765,5
1580338022.765,5
1580338032.765,5
1580338042.765,5
1580338052.765,5
1580338062.765,5
1580338072.765,5
1580338082.765,5
1580338092.765,5
1580338102.765,5
1580338112.765,6
1580338122.765,6
1580338132.765,6
1580338142.765,6
1580338152.765,6
1580338162.765,6
1580338172.765,6
1580338182.765,6
1580338192.765,6
1580338202.765,6
1580338212.765,6
1580338222.765,6
1580338232.765,6
1580338242.765,6
1580338252.765,6
1580338262.765,6
1580338272.765,6
1580338282.765,6
1580338292.765,6
1580338302.765,6
1580338312.765,6
1580338322.765,6
1580338332.765,6
1580338342.765,6
1580338352.765,6
1580338362.765,6
1580338372.765,6
1580338382.765,6
1580338392.765,6
1580338402.765,6
1580338412.765,6
1580338422.765,6
1580338432.765,6
1580338442.765,6
1580338452.765,6
1580338462.765,6
1580338472.765,6
1580338482.765,6
1580338492.765,6
1580338502.765,6
1580338512.765,6
1580338522.765,6
1580338532.765,6
1580338542.765,6
1580338552.765,6
1580338562.765,6
1580338572.765,6
1580338582.765,6
1580338592.765,6
1580338602.765,6
1580338612.765,6
1580338622.765,6
1580338632.765,6
1580338642.765,6
1580338652.765,6
1580338662.765,6
1580338672.765,6
1580338682.765,7
1580338692.765,7
1580338702.765,7
1580338712.765,7
1580338722.765,7
1580338732.765,7
1580338742.765,7
1580338752.765,7
1580338762.765,7
1580338772.765,7
1580338782.765,7
1580338792.765,7
1580338802.765,7
1580338812.765,7
1580338822.765,7
1580338832.765,7
1580338842.765,7
1580338852.765,7
1580338862.765,7
1580338872.765,7
1580338882.765,7
1580338892.765,7
1580338902.765,7
1580338912.765,7
1580338922.765,7
1580338932.765,7
1580338942.765,7
1580338952.765,7
1580338962.765,7
1580338972.765,7
1580338982.765,7
1580338992.765,8
1580339002.765,8
1580339012.765,8
1580339022.765,8
1580339032.765,8
1580339042.765,8
1580339052.765,8
1580339062.765,8
1580339072.765,8
1580339082.765,8
1580339092.765,8
1580339102.765,8
1580339112.765,8
1580339122.765,8
1580339132.765,8
1580339142.769,8
1580339152.765,8
1580339162.765,8
1580339172.765,8
1580339182.765,8
1580339192.765,8
1580339202.765,8
1580339212.765,8
1580339222.765,8
1580339232.765,8
1580339242.765,8
1580339252.765,8
1580339262.765,8
1580339272.765,8
1580339282.765,8
1580339292.765,8
1580339302.765,8
1580339312.765,8
1580339322.765,8
1580339332.765,8
1580339342.765,9
1580339352.765,9
1580339362.765,9
1580339372.765,9
1580339382.765,9
1580339392.765,9
1580339402.765,9
1580339412.765,9
1580339422.765,9
1580339432.765,9
1580339442.765,9
1580339452.765,9
1580339462.765,9
1580339472.765,9
1580339482.765,9
1580339492.765,9
1580339502.765,9
1580339512.765,9
1580339522.765,9
1580339532.765,9
1580339542.765,9
1580339552.765,9
1580339562.765,9
1580339572.765,9
1580339582.765,9
1580339592.765,9
1580339602.765,9
1580339612.765,9
1580339622.765,9
1580339632.765,9
1580339642.765,9
1580339652.765,9
1580339662.765,9
1580339672.765,9
1580339682.765,9
1580339692.765,9
1580339712.765,10
1580339722.765,10
1580339732.765,10
1580339742.765,10
1580339752.765,10
1580339762.765,10
1580339772.765,10
1580339782.765,10
1580339792.765,10
1580339802.765,10
1580339812.765,10
1580339822.765,10
1580339832.765,10
1580339842.765,10
1580339852.765,10
1580339862.765,10
1580339872.765,10
1580339882.765,10
1580339892.765,10
1580339902.765,10
1580339912.765,10
1580339922.766,10
1580339932.765,10
1580339942.765,10
1580339952.765,10
1580339962.765,10
1580339972.765,10
1580339982.765,10
1580339992.765,10
1580340002.765,10
1580340012.765,10
1580340022.765,10
1580340032.765,10
1580340042.765,10
1580340052.765,10
1580340062.765,10
1580340072.765,10
1580340082.765,10
1580340092.765,10
1580340102.765,10
1580340112.765,10
1580340122.765,10
1580340132.765,10
1580340142.765,10
1580340152.765,10
1580340162.765,10
1580340172.765,10
1580340182.765,11
1580340192.765,11
1580340202.765,11
1580340212.765,11
1580340222.765,11
1580340232.765,11
1580340242.765,11
1580340252.765,11
1580340262.765,11
1580340272.765,11
1580340282.765,11
1580340292.765,11
1580340302.765,11
1580340312.765,11
1580340322.765,11
1580340332.765,11
1580340342.765,11
1580340352.765,11
1580340372.765,11
1580340382.765,11
1580340392.765,11
1580340402.765,11
1580340412.765,11
1580340422.765,11
1580340432.765,11
1580340442.765,11
1580340452.765,11
1580340462.765,11
1580340472.765,11
1580340482.765,11
1580340492.765,11
1580340502.765,11
1580340512.765,11
1580340522.765,11
1580340532.765,11
1580340542.765,11
1580340552.765,11
1580340562.765,12
1580340572.765,12
1580340582.765,12
1580340592.765,12
1580340602.765,12
1580340612.765,12
1580340622.765,12
1580340632.765,12
1580340642.765,12
1580340652.765,12
1580340662.765,12
1580340672.765,12
1580340682.765,12
1580340692.765,12
1580340702.765,12
1580340712.765,12
1580340722.765,12
1580340732.765,12
1580340742.765,12
1580340752.765,12
1580340762.765,12
1580340772.765,12
1580340782.765,12
1580340792.765,12
1580340802.765,12
1580340812.765,12
1580340822.765,12
1580340832.765,12
1580340842.765,12
1580340852.765,12
1580340862.765,12
1580340872.765,12
1580340882.765,12
1580340892.765,12
1580340902.765,12
1580340912.765,12
1580340922.765,12
1580340932.765,12
1580340942.765,12
1580340952.765,12
1580340962.765,12
1580340972.765,12
1580340982.765,12
1580340992.765,12
1580341002.765,12
1580341012.765,12
1580341022.765,12
1580341032.765,12
1580341042.765,12
1580341052.765,12
1580341062.765,12
1580341072.765,12
1580341082.765,12
1580341092.765,12
1580341102.765,12
1580341112.765,12
1580341122.765,13
1580341132.765,13
1580341142.765,13
1580341152.765,13
1580341162.765,13
1580341172.765,13
1580341182.765,13
1580341192.765,13
1580341202.765,13
1580341212.765,13
1580341222.765,13
1580341232.765,13
1580341242.765,13
1580341252.765,13
1580341262.765,13
1580341272.765,13
1580341282.765,13
1580341292.765,13
1580341302.769,13
1580341312.765,13
1580341322.765,13
1580341332.765,13
1580341342.765,13
1580341352.765,13
1580341362.765,13
1580341372.765,13
1580341382.765,13
1580341392.765,13
1580341402.765,13
1580341412.765,13
1580341422.765,13
1580341432.765,13
1580341442.765,13
1580341452.765,13
1580341462.765,13
1580341472.765,13
1580341482.765,13
1580341492.765,13
1580341502.765,13
1580341512.765,13
1580341522.765,13
1580341532.765,13
1580341542.765,13
1580341552.765,13
1580341562.765,13
1580341572.765,13
1580341582.765,13
1580341592.765,13
1580341602.765,13
1580341612.765,13
1580341622.765,13
1580341632.765,13
1580341642.765,13
1580341652.765,13
1580341662.765,13
1580341672.765,13
1580341682.765,13
1580341692.765,13
1580341702.765,14
1580341712.765,14
1580341722.765,14
1580341732.765,14
1580341742.765,14
1580341752.765,14
1580341762.765,14
1580341772.765,14
1580341782.765,14
1580341792.765,14
1580341802.765,14
1580341812.765,14
1580341822.765,14
1580341832.765,14
1580341842.765,14
1580341852.765,14
1580341862.765,14
1580341872.765,14
1580341882.765,14
1580341892.765,14
1580341902.765,14
1580341912.765,14
1580341922.765,14
1580341932.765,14
1580341942.765,14
1580341952.765,14
1580341962.765,14
1580341972.765,14
1580341982.765,14
1580341992.765,14
1580342002.765,14
1580342012.765,14
1580342022.765,14
1580342032.765,14
1580342042.765,14
1580342052.765,14
1580342062.765,14
1580342072.765,14
1580342082.765,14
1580342092.765,14
1580342102.765,14
1580342112.765,14
1580342122.765,14
1580342132.765,14
1580342142.765,14
1580342152.765,14
1580342162.765,14
1580342172.765,14
1580342182.765,14
1580342192.765,14
1580342202.765,14
1580342212.765,14
1580342222.765,14
1580342232.765,14
1580342242.765,14
1580342252.765,14
1580342262.765,14
1580342272.765,15
1580342282.765,15
1580342292.765,15
1580342302.765,15
1580342312.765,15
1580342322.765,15
1580342332.765,15
1580342342.765,15
1580342352.765,15
1580342362.765,15
1580342372.765,15
1580342382.765,15
1580342392.765,15
