epoch,value
1580486973.681,0
1580486983.681,0
1580486993.681,0
1580487003.681,24
1580487013.681,37
1580487023.681,43
1580487033.681,58
1580487043.681,83
1580487053.681,114
1580487063.681,141
1580487073.681,162
1580487083.681,191
1580487093.681,218
1580487103.681,255
1580487113.681,284
1580487123.681,330
1580487133.681,375
1580487143.681,408
1580487153.681,447
1580487163.681,497
1580487173.681,538
1580487183.681,562
1580487193.681,600
1580487203.681,615
1580487213.681,634
1580487223.681,660
1580487233.681,676
1580487243.681,713
1580487253.681,721
1580487263.681,723
1580487273.681,723
1580487283.681,723
1580487293.681,723
1580487303.681,724
1580487313.681,724
1580487323.681,724
1580487333.681,724
1580487343.681,724
1580487353.681,724
1580487363.681,724
1580487373.681,724
1580487383.681,724
1580487393.681,724
1580487403.681,724
1580487413.681,724
1580487423.681,724
1580487433.681,725
1580487443.681,725
1580487453.681,725
1580487463.681,725
1580487473.681,725
1580487483.681,725
1580487493.681,725
1580487503.681,725
1580487513.681,725
1580487523.681,725
1580487533.681,725
1580487543.681,725
1580487553.681,725
1580487563.681,725
1580487573.681,725
1580487583.681,725
1580487593.681,725
1580487603.681,725
1580487613.681,726
1580487623.682,726
1580487633.681,726
1580487643.681,726
1580487653.681,726
1580487663.681,726
1580487673.681,726
1580487683.681,726
1580487693.681,726
1580487703.681,726
1580487713.681,726
1580487723.681,726
1580487733.681,726
1580487743.681,726
1580487753.681,726
1580487763.681,726
1580487773.681,726
1580487783.681,726
1580487793.681,726
1580487803.681,726
1580487813.681,726
1580487823.681,726
1580487833.681,726
1580487843.681,727
1580487853.681,727
1580487863.681,727
1580487873.681,727
1580487883.681,727
1580487893.681,727
1580487903.681,727
1580487913.681,727
1580487923.681,727
1580487933.681,727
1580487943.681,727
1580487953.681,727
1580487963.681,727
1580487973.681,727
1580487983.681,727
1580487993.681,727
1580488003.681,727
1580488013.681,727
1580488023.681,728
1580488033.681,728
1580488043.681,728
1580488053.681,728
1580488063.681,728
1580488073.681,728
1580488083.681,728
1580488103.681,728
1580488113.681,728
1580488123.681,728
1580488133.681,728
1580488143.681,728
1580488153.681,728
1580488163.681,728
1580488173.681,728
1580488183.681,728
1580488203.681,728
1580488213.681,728
1580488223.681,728
1580488233.681,728
1580488243.681,728
1580488253.681,728
1580488263.681,728
1580488273.681,728
1580488283.681,728
1580488293.681,728
1580488303.681,728
1580488313.681,728
1580488323.681,729
1580488333.681,729
1580488343.681,729
1580488353.681,729
1580488363.681,729
1580488373.681,729
1580488383.681,729
1580488393.681,729
1580488403.681,729
1580488413.681,729
1580488423.681,729
1580488433.681,729
1580488443.681,729
1580488453.681,729
1580488463.681,729
1580488473.681,729
1580488483.681,729
1580488493.681,729
1580488503.681,729
