epoch,value
1580237625.413,313068
1580237635.394,313068
1580237645.395,313068
1580237655.394,313068
1580237665.395,313068
1580237675.394,313068
1580237685.395,313078
1580237695.394,313081
1580237705.394,313099
1580237715.396,313107
1580237725.394,313112
1580237735.395,313129
1580237745.394,313130
1580237755.394,313139
1580237765.394,313145
1580237775.394,313157
1580237785.394,313164
1580237795.394,313170
1580237805.396,313176
1580237815.394,313183
1580237825.394,313196
1580237835.396,313201
1580237845.394,313212
1580237855.394,313218
1580237865.394,313228
1580237875.394,313232
1580237885.394,313246
1580237895.394,313250
1580237905.394,313257
1580237915.394,313266
1580237925.394,313267
1580237935.394,313277
1580237945.394,313284
1580237955.394,313289
1580237965.394,313297
1580237975.394,313309
1580237985.396,313311
1580237995.394,313311
1580238005.394,313311
1580238015.394,313311
1580238025.394,313312
1580238035.394,313312
1580238045.394,313313
1580238055.394,313313
1580238065.394,313313
1580238075.394,313313
1580238085.394,313314
1580238095.394,313314
1580238105.394,313314
1580238115.394,313314
1580238125.394,313314
1580238135.394,313314
1580238145.394,313314
1580238155.394,313314
1580238165.394,313315
1580238175.395,313316
1580238185.394,313316
1580238195.394,313317
1580238205.394,313317
1580238215.394,313317
1580238225.394,313318
1580238235.394,313318
1580238245.394,313318
1580238255.394,313318
1580238265.394,313318
1580238275.394,313318
1580238285.394,313318
1580238295.394,313318
1580238305.394,313319
1580238315.394,313319
1580238325.394,313319
1580238335.396,313320
1580238345.394,313320
1580238355.394,313320
1580238365.394,313321
1580238375.395,313321
1580238385.395,313321
1580238395.394,313321
1580238405.394,313321
1580238415.394,313321
1580238425.394,313321
1580238435.394,313321
1580238445.394,313321
1580238455.394,313321
1580238465.394,313321
1580238475.394,313321
1580238485.394,313321
1580238495.394,313321
1580238505.394,313322
1580238515.394,313323
1580238525.394,313323
1580238535.395,313323
1580238545.394,313323
1580238555.395,313323
1580238565.394,313325
1580238575.394,313325
1580238585.394,313325
1580238595.395,313326
1580238605.395,313326
1580238615.394,313327
1580238625.394,313327
1580238635.394,313327
1580238645.394,313327
1580238655.394,313327
1580238665.394,313328
1580238675.394,313331
1580238685.394,313331
1580238695.395,313331
1580238705.394,313331
1580238715.394,313332
1580238725.394,313332
1580238735.394,313334
1580238745.395,313335
1580238755.397,313336
1580238765.394,313336
1580238775.394,313336
1580238785.394,313336
1580238795.394,313336
1580238805.394,313336
1580238815.395,313336
1580238825.394,313336
1580238835.394,313337
1580238845.394,313338
1580238855.394,313339
1580238865.394,313339
1580238875.394,313339
1580238885.394,313340
1580238895.394,313341
1580238905.395,313342
1580238915.394,313342
1580238925.394,313342
1580238935.394,313342
1580238945.394,313342
1580238955.394,313342
1580238965.394,313342
1580238975.394,313344
1580238985.394,313345
1580238995.394,313346
1580239005.394,313346
1580239015.394,313346
1580239025.397,313347
1580239035.394,313347
1580239045.394,313347
1580239055.394,313348
