epoch,value
1580237665.145,0
1580237675.145,0
1580237685.145,1
1580237695.145,3
1580237705.145,5
1580237715.145,5
1580237725.145,10
1580237735.145,21
1580237745.145,24
1580237755.145,27
1580237765.145,30
1580237775.145,33
1580237785.145,33
1580237795.145,35
1580237805.145,37
1580237815.145,38
1580237825.145,40
1580237835.145,43
1580237845.145,45
1580237855.145,47
1580237865.145,54
1580237875.145,56
1580237885.145,59
1580237895.145,61
1580237905.145,74
1580237915.145,87
1580237925.145,103
1580237935.145,119
1580237945.145,123
1580237955.145,128
1580237975.145,134
1580237985.145,135
1580237995.145,135
1580238005.145,135
1580238015.145,135
1580238025.145,135
1580238035.145,135
1580238045.145,136
1580238055.145,136
1580238065.145,136
1580238075.145,136
1580238085.145,136
1580238095.145,136
1580238105.145,136
1580238115.145,136
1580238125.145,136
1580238135.145,137
1580238145.145,137
1580238155.145,137
1580238165.145,137
1580238175.145,137
1580238185.145,137
1580238195.145,137
1580238205.145,137
1580238215.145,137
1580238225.145,137
1580238235.145,137
1580238245.145,137
1580238255.145,137
1580238265.145,137
1580238275.145,137
1580238285.145,137
1580238295.145,137
1580238305.145,138
1580238315.145,138
1580238325.145,138
1580238335.145,138
1580238345.145,138
1580238355.145,138
1580238365.145,138
1580238375.145,138
1580238385.145,138
1580238395.145,138
1580238405.145,138
1580238415.145,138
1580238425.145,139
1580238435.145,139
1580238445.145,139
1580238455.145,139
1580238465.145,139
1580238475.145,139
1580238485.145,139
1580238495.145,139
1580238505.145,139
1580238515.145,140
1580238525.145,140
1580238535.145,140
1580238545.145,140
1580238555.145,140
1580238565.145,140
1580238575.145,140
1580238585.145,140
1580238595.145,140
1580238605.145,140
1580238615.145,140
1580238625.145,140
1580238635.145,141
1580238645.145,141
1580238655.145,141
1580238665.145,141
1580238675.145,141
1580238685.145,141
1580238695.145,141
1580238705.145,141
1580238715.145,141
1580238725.145,141
1580238735.145,141
1580238745.145,142
1580238755.145,142
1580238765.149,142
1580238775.145,142
1580238785.145,142
1580238795.145,142
1580238805.145,142
1580238815.145,143
1580238825.145,143
1580238835.145,143
1580238845.145,143
1580238855.145,143
1580238865.145,143
1580238875.145,143
1580238885.145,143
1580238895.145,143
1580238905.145,143
1580238915.145,143
1580238925.145,143
1580238935.145,143
1580238945.145,143
1580238955.145,143
1580238965.145,143
1580238975.145,143
1580238985.145,143
1580238995.145,144
1580239005.145,144
1580239015.145,144
1580239025.145,144
1580239035.145,144
1580239045.145,144
1580239055.145,144
