epoch,value
1580818453.993,13293
1580818463.973,13293
1580818473.972,13294
1580818483.973,13294
1580818493.972,13294
1580818503.974,13294
1580818513.973,13294
1580818523.973,13294
1580818533.974,13294
1580818543.973,13294
1580818553.972,13294
1580818563.973,13294
1580818573.972,13294
1580818583.974,13294
1580818593.972,13294
1580818603.973,13294
1580818613.972,13295
1580818623.975,13295
1580818633.973,13295
1580818643.973,13295
1580818653.973,13295
1580818663.973,13295
1580818673.972,13295
1580818683.972,13295
1580818693.973,13295
1580818703.975,13295
1580818713.973,13295
1580818723.972,13295
1580818733.973,13295
1580818743.973,13296
1580818753.972,13296
1580818763.972,13296
1580818773.972,13296
1580818783.972,13296
1580818793.973,13296
1580818803.974,13298
1580818813.972,13300
1580818823.973,13300
1580818833.972,13301
1580818843.973,13302
1580818853.972,13304
1580818863.975,13304
1580818873.973,13304
1580818883.972,13306
1580818893.973,13306
1580818903.973,13306
1580818913.974,13306
1580818923.972,13306
1580818933.972,13306
1580818943.972,13306
1580818953.972,13306
1580818963.974,13306
1580818973.972,13306
1580818983.973,13306
1580818993.972,13306
1580819003.972,13306
1580819013.975,13306
1580819023.972,13306
1580819033.972,13306
1580819043.973,13306
1580819053.972,13306
1580819063.972,13306
1580819073.972,13306
1580819083.972,13306
1580819093.973,13306
1580819103.972,13306
1580819113.973,13307
1580819123.973,13307
1580819133.972,13307
1580819143.972,13307
1580819153.973,13307
1580819163.972,13307
1580819173.973,13307
1580819183.972,13307
1580819193.972,13307
1580819203.973,13307
1580819213.973,13307
1580819223.972,13307
1580819233.973,13307
1580819243.974,13307
1580819253.973,13307
1580819263.973,13307
1580819273.973,13309
1580819283.974,13309
1580819293.974,13309
1580819303.972,13309
1580819313.972,13309
1580819323.972,13309
1580819333.973,13309
1580819343.972,13309
1580819353.972,13309
1580819363.972,13309
1580819373.975,13309
1580819383.972,13309
1580819393.972,13309
1580819403.972,13309
1580819413.974,13309
1580819423.972,13309
1580819433.972,13309
1580819443.974,13309
1580819453.972,13309
1580819463.972,13309
1580819473.972,13309
1580819483.973,13309
1580819493.972,13309
1580819503.974,13309
1580819513.973,13309
1580819523.974,13309
1580819533.972,13309
1580819543.972,13309
1580819553.972,13309
1580819563.972,13309
1580819573.972,13309
1580819583.974,13309
1580819593.976,13309
1580819603.973,13309
1580819613.972,13309
1580819623.972,13309
1580819633.972,13309
1580819643.974,13309
1580819653.974,13309
1580819663.973,13309
1580819673.972,13309
1580819683.973,13309
1580819693.972,13309
1580819703.973,13309
1580819713.972,13309
1580819723.973,13310
1580819733.972,13310
1580819743.972,13310
1580819753.973,13310
1580819763.974,13310
1580819773.972,13310
1580819783.972,13310
1580819793.972,13310
1580819803.972,13310
1580819813.972,13310
1580819823.972,13310
1580819833.973,13310
1580819843.972,13310
1580819853.972,13310
1580819863.975,13310
1580819873.972,13310
1580819883.972,13310
1580819893.972,13310
1580819903.972,13310
1580819913.972,13310
1580819923.972,13310
1580819933.973,13310
1580819943.972,13310
1580819953.972,13310
1580819963.974,13310
1580819973.972,13310
1580819983.972,13310
1580819993.975,13310
1580820003.972,13310
1580820013.972,13310
1580820023.972,13310
1580820033.974,13310
1580820043.973,13310
1580820053.972,13310
1580820063.972,13310
1580820073.972,13310
1580820083.973,13310
