epoch,value
1580543490.913,0
1580543500.913,0
1580543510.912,0
1580543520.912,0
1580543530.912,0
1580543540.913,0
1580543550.912,0
1580543560.913,0
1580543570.912,0
1580543580.912,0
1580543590.913,0
1580543610.912,1
1580543620.912,1
1580543630.912,1
1580543640.912,1
1580543650.912,1
1580543670.912,1
1580543680.913,1
1580543690.912,1
1580543700.912,1
1580543710.912,1
1580543720.913,1
1580543730.912,1
1580543740.912,1
1580543750.912,1
1580543760.912,1
1580543770.912,1
1580543780.912,1
1580543800.917,1
1580543810.912,1
1580543830.912,1
1580543840.912,2
1580543850.912,2
1580543860.912,2
1580543870.912,2
1580543880.912,2
1580543890.912,2
1580543900.912,2
1580543910.912,2
1580543920.912,2
1580543930.912,2
1580543950.912,2
1580543960.912,2
1580543970.912,2
1580543980.912,2
1580543990.912,2
1580544010.912,2
1580544020.912,2
1580544030.912,2
1580544040.912,2
1580544050.913,2
1580544060.913,2
1580544070.913,2
1580544080.912,2
1580544090.912,2
1580544110.912,2
1580544120.912,2
1580544130.912,3
1580544140.912,3
1580544150.912,3
1580544160.912,3
1580544170.912,3
1580544180.912,3
1580544190.912,3
1580544200.912,3
1580544210.912,3
1580544220.912,3
1580544230.914,3
1580544240.912,3
1580544250.912,3
1580544260.912,3
1580544270.913,3
1580544280.912,3
1580544290.912,4
1580544300.912,4
1580544310.913,4
1580544320.912,4
1580544330.912,4
1580544340.912,4
1580544350.913,4
1580544360.912,4
1580544370.912,4
1580544380.912,4
1580544390.912,4
1580544400.912,4
1580544410.912,4
1580544420.912,4
1580544430.912,4
1580544440.912,4
1580544450.912,4
1580544460.913,4
1580544470.912,5
1580544480.912,5
1580544490.913,5
1580544500.912,5
1580544510.912,5
1580544520.912,5
1580544530.912,5
1580544540.912,5
1580544550.912,5
1580544560.912,5
1580544570.912,5
1580544580.912,5
1580544590.912,5
1580544600.912,6
1580544610.912,6
1580544620.912,6
1580544630.913,6
1580544640.913,6
1580544650.912,6
1580544660.912,6
1580544670.912,6
1580544680.912,6
1580544690.912,6
1580544700.912,6
1580544710.917,6
1580544720.912,6
1580544740.912,6
1580544750.912,6
1580544760.912,6
1580544770.912,6
1580544780.913,6
1580544790.912,7
1580544800.912,7
1580544810.913,7
1580544820.912,7
1580544830.912,7
1580544840.912,7
1580544850.914,7
1580544860.912,7
1580544870.913,7
1580544880.912,7
1580544890.913,7
1580544900.912,7
1580544910.912,7
1580544920.912,7
1580544930.913,7
1580544940.912,7
1580544950.912,7
1580544960.912,7
1580544970.914,7
1580544980.913,7
1580544990.912,7
1580545000.912,7
1580545010.912,7
1580545030.912,7
1580545040.912,7
1580545050.912,7
1580545060.912,7
1580545070.913,7
1580545080.912,7
1580545090.912,8
1580545100.913,8
1580545110.912,8
1580545120.912,8
1580545130.912,8
1580545140.912,8
1580545150.912,8
1580545160.912,8
1580545170.912,8
1580545180.912,8
1580545190.912,8
1580545200.913,8
1580545210.912,8
1580545220.912,8
1580545230.912,8
1580545240.912,8
1580545250.912,9
1580545260.912,9
1580545280.912,9
1580545290.912,9
1580545300.913,9
1580545310.912,9
1580545320.912,9
1580545330.912,9
1580545340.912,9
1580545350.912,9
1580545360.912,9
1580545370.913,9
1580545380.912,9
1580545390.912,9
1580545400.912,9
1580545410.913,9
1580545420.913,9
1580545430.912,9
1580545440.913,10
1580545450.912,10
1580545460.912,10
1580545470.912,10
1580545480.912,10
1580545490.912,10
1580545500.912,10
1580545510.913,10
1580545520.912,10
1580545530.912,10
1580545540.912,10
1580545550.912,10
1580545560.912,10
1580545570.912,10
1580545580.912,10
1580545590.912,10
1580545600.912,10
1580545610.913,11
1580545620.912,11
1580545630.912,11
1580545640.912,11
1580545650.912,11
1580545660.913,11
1580545670.912,11
1580545680.913,11
1580545690.912,11
1580545700.912,11
1580545710.912,11
1580545720.913,11
1580545730.912,11
1580545740.912,11
1580545750.912,11
1580545760.912,11
1580545770.912,11
1580545780.912,11
1580545790.913,11
1580545800.912,11
1580545810.912,11
1580545820.912,11
1580545830.912,11
1580545840.912,11
1580545850.912,11
1580545860.913,11
1580545870.912,11
1580545880.912,12
1580545890.912,12
1580545900.912,12
1580545910.912,12
1580545920.912,12
1580545930.912,12
1580545940.912,12
1580545960.912,13
1580545970.912,13
1580545980.912,13
1580545990.912,13
1580546000.912,13
1580546010.912,13
1580546020.912,13
1580546030.912,13
1580546040.912,13
1580546050.912,13
1580546060.912,13
1580546070.912,13
1580546080.912,13
1580546090.912,13
1580546100.912,13
1580546110.912,13
1580546120.912,14
1580546130.912,14
1580546140.913,14
1580546150.912,14
1580546160.912,14
1580546170.912,14
1580546180.912,14
1580546190.912,14
1580546200.913,14
1580546220.912,14
1580546230.912,14
1580546250.912,14
1580546260.912,14
1580546270.912,15
1580546280.912,15
1580546290.912,15
1580546310.912,15
1580546320.912,15
1580546330.912,15
1580546340.912,15
1580546350.912,15
1580546360.912,15
1580546370.913,15
1580546380.913,15
1580546390.912,15
1580546400.912,16
1580546410.913,16
1580546420.912,16
1580546430.912,16
1580546440.912,16
1580546450.912,16
1580546460.912,16
1580546470.912,16
1580546480.912,16
1580546490.912,16
1580546500.913,16
1580546510.912,17
1580546520.912,17
1580546530.912,17
1580546540.912,17
1580546550.912,17
1580546560.912,17
1580546570.912,17
1580546580.912,17
1580546590.913,17
1580546600.912,17
1580546610.912,17
1580546620.912,17
1580546630.912,17
1580546640.912,17
1580546650.912,17
1580546660.912,17
1580546670.912,17
1580546680.912,17
1580546690.912,17
1580546700.912,17
1580546710.912,17
1580546720.913,17
1580546730.912,17
1580546740.912,17
1580546750.912,18
1580546760.912,18
1580546770.912,18
1580546780.912,18
1580546790.912,18
1580546800.912,18
1580546810.912,18
1580546820.913,18
1580546830.912,18
1580546840.913,18
1580546850.912,18
1580546860.912,18
1580546870.912,18
1580546880.912,18
1580546890.913,18
1580546900.912,18
1580546910.912,18
1580546920.912,18
1580546940.913,18
1580546950.912,18
1580546960.912,18
1580546970.912,18
1580546980.912,18
1580546990.912,18
1580547000.912,18
1580547010.912,18
1580547020.912,18
1580547030.912,18
1580547040.912,18
1580547050.912,19
1580547060.912,19
1580547070.912,19
1580547080.912,19
1580547090.912,19
1580547100.912,19
1580547110.912,19
1580547120.912,19
1580547130.917,19
1580547140.912,19
1580547150.912,19
1580547160.912,19
1580547170.913,19
1580547180.912,19
1580547190.912,19
1580547200.912,19
1580547210.913,19
1580547220.912,19
1580547230.913,19
1580547240.912,19
1580547250.912,19
1580547260.912,19
1580547270.913,19
1580547280.913,19
1580547290.912,19
1580547300.912,19
1580547310.912,19
1580547320.913,19
1580547330.912,19
1580547340.912,19
1580547350.912,19
1580547360.912,19
1580547370.912,19
1580547380.912,19
1580547390.912,19
1580547400.912,19
1580547410.912,20
1580547420.912,20
1580547430.912,20
1580547440.912,20
1580547450.912,20
1580547460.912,20
1580547470.912,20
1580547480.912,20
1580547490.912,20
1580547500.912,20
1580547510.912,20
1580547520.912,20
1580547530.912,20
1580547540.912,20
1580547550.912,20
1580547560.912,20
1580547570.912,20
1580547580.912,20
1580547590.912,20
1580547600.912,20
1580547610.912,20
1580547620.912,20
1580547630.912,20
1580547640.912,20
1580547650.912,20
1580547660.912,21
1580547670.912,21
1580547680.912,21
1580547690.912,21
1580547700.912,21
1580547710.912,21
1580547720.912,21
1580547730.912,21
1580547740.913,21
1580547750.912,21
1580547760.912,21
1580547770.912,21
1580547780.912,21
1580547790.913,21
1580547800.912,21
1580547810.912,21
1580547820.912,21
1580547830.912,21
1580547840.912,21
1580547850.912,21
1580547860.912,22
1580547870.912,22
1580547880.912,22
1580547890.912,22
1580547900.912,22
1580547910.913,22
1580547920.912,22
1580547930.912,22
1580547940.912,22
1580547950.913,22
1580547960.913,22
1580547970.912,22
1580547980.912,22
1580547990.912,22
1580548000.912,22
1580548010.912,22
1580548020.912,22
1580548030.912,22
1580548040.912,22
1580548050.913,22
1580548060.912,22
1580548070.912,22
1580548080.912,22
1580548090.912,22
1580548100.912,23
1580548110.912,23
1580548120.912,23
1580548130.912,23
1580548140.912,23
1580548150.912,23
1580548160.912,23
1580548170.912,23
1580548180.912,23
1580548200.913,23
1580548210.912,23
1580548220.912,23
1580548230.912,23
1580548240.912,23
1580548250.912,23
1580548260.912,23
1580548270.912,23
1580548280.912,23
1580548290.913,24
1580548300.912,24
1580548310.912,24
1580548320.912,24
1580548330.912,24
1580548340.912,24
1580548350.912,24
1580548360.912,24
1580548370.912,24
1580548380.912,24
1580548390.912,24
1580548400.912,24
1580548410.912,24
1580548420.912,24
1580548430.912,24
1580548440.912,24
1580548450.912,24
1580548460.912,24
1580548470.912,24
1580548480.912,24
1580548490.913,24
1580548500.912,24
1580548510.912,25
1580548520.912,25
1580548530.912,25
1580548540.912,25
1580548560.912,25
1580548570.912,25
1580548580.912,25
1580548590.912,25
1580548600.912,25
1580548620.912,25
1580548630.912,25
1580548640.912,25
1580548650.912,25
1580548660.912,25
1580548670.912,25
1580548680.912,25
1580548690.912,25
1580548700.912,25
1580548710.912,25
1580548720.912,26
1580548730.912,26
1580548740.912,26
1580548750.912,26
1580548760.912,26
1580548770.912,26
1580548780.912,26
1580548790.912,26
1580548800.912,26
1580548810.912,26
1580548820.912,26
1580548830.912,26
1580548840.912,26
1580548850.913,26
1580548860.912,26
1580548870.912,26
1580548880.912,26
1580548890.912,26
1580548900.913,27
1580548910.912,27
1580548920.912,27
1580548930.912,27
1580548940.912,27
1580548950.913,27
1580548960.912,27
1580548970.912,27
1580548980.912,27
1580548990.912,27
1580549000.912,27
1580549010.912,27
1580549020.912,27
1580549030.912,27
1580549040.913,27
1580549050.912,27
1580549060.912,27
1580549070.912,27
1580549080.913,27
1580549090.912,28
1580549100.912,28
1580549110.912,28
1580549120.912,28
1580549130.913,28
1580549140.912,28
1580549150.912,28
1580549160.912,28
1580549170.912,28
1580549180.912,28
1580549190.912,28
1580549200.912,28
1580549210.913,28
1580549220.912,28
1580549230.912,28
1580549240.913,28
1580549250.912,28
1580549260.912,28
1580549270.912,28
1580549280.912,28
1580549290.912,28
1580549300.912,28
1580549310.912,28
1580549320.912,28
1580549330.912,28
1580549340.912,28
1580549350.912,28
1580549360.912,29
1580549380.912,29
1580549390.912,29
1580549400.912,29
1580549410.912,29
1580549420.912,29
1580549430.912,29
1580549440.912,29
1580549450.912,29
1580549460.912,29
1580549470.912,29
1580549480.912,29
1580549490.912,29
1580549500.912,29
1580549510.912,29
1580549520.912,29
1580549530.912,29
1580549540.912,29
1580549550.914,29
1580549560.912,29
1580549570.912,29
1580549580.912,29
1580549590.912,30
1580549600.912,30
1580549610.913,30
1580549620.912,30
1580549630.912,30
1580549640.912,30
1580549650.912,30
1580549660.912,30
1580549670.912,30
1580549680.912,30
1580549690.912,30
1580549700.912,30
1580549710.912,30
1580549720.913,30
1580549730.912,30
1580549740.912,30
1580549750.912,30
1580549760.913,30
1580549770.912,30
1580549780.912,30
1580549790.912,30
1580549800.912,30
1580549810.912,30
1580549830.912,31
1580549840.912,31
1580549850.912,31
1580549860.912,31
1580549870.912,31
1580549880.912,31
1580549890.912,31
1580549900.912,31
1580549910.913,31
1580549920.912,31
1580549930.912,31
1580549940.912,31
1580549950.912,31
1580549960.913,31
1580549970.912,31
1580549980.913,31
1580549990.912,31
1580550000.912,31
1580550010.912,31
1580550020.912,31
1580550030.912,31
1580550040.913,31
1580550050.913,31
1580550060.912,31
1580550080.912,31
1580550090.912,31
1580550100.912,31
1580550110.913,31
1580550120.912,31
1580550130.913,31
1580550140.913,31
1580550150.912,31
1580550160.912,32
1580550170.912,32
1580550180.912,32
1580550190.912,32
1580550200.912,32
1580550210.912,32
1580550220.912,32
1580550230.912,32
1580550240.914,32
1580550250.912,32
1580550260.912,32
1580550270.912,32
1580550280.912,32
1580550290.912,32
1580550300.912,32
1580550310.912,32
1580550320.912,32
1580550330.913,32
1580550340.913,32
1580550350.913,32
1580550360.913,32
1580550370.912,32
1580550380.912,32
1580550390.912,33
1580550400.912,33
1580550410.912,33
1580550420.912,33
1580550430.912,33
1580550440.912,33
1580550450.912,33
1580550460.912,33
1580550470.912,33
1580550480.912,33
1580550490.912,33
1580550500.912,33
1580550510.912,33
1580550520.912,33
1580550530.912,33
1580550540.912,33
1580550550.912,33
1580550560.912,33
1580550570.912,33
1580550580.912,33
1580550590.912,33
1580550600.912,33
1580550610.913,33
1580550620.912,33
1580550630.912,33
1580550640.912,33
1580550650.912,33
1580550660.912,34
1580550670.912,34
1580550680.912,34
1580550690.912,34
1580550700.912,34
1580550720.912,34
1580550730.912,34
1580550740.912,34
1580550760.913,34
1580550770.913,34
1580550780.912,34
1580550790.912,34
1580550810.912,34
1580550820.913,34
1580550830.912,34
1580550840.912,34
1580550850.912,34
1580550860.912,34
1580550870.913,34
1580550880.914,34
1580550890.912,35
1580550900.912,35
1580550910.912,35
1580550920.912,35
1580550930.913,35
1580550940.912,35
1580550950.913,35
1580550960.912,35
1580550970.913,35
1580550980.912,35
1580550990.912,35
1580551000.913,35
1580551010.912,35
1580551020.913,35
1580551030.912,35
1580551040.912,35
1580551050.912,35
1580551060.912,35
1580551070.912,35
1580551080.912,35
1580551090.912,35
1580551100.912,35
1580551110.912,35
1580551120.912,35
1580551130.912,35
1580551140.912,35
1580551150.912,36
1580551160.912,36
1580551170.912,36
1580551180.912,36
1580551190.912,36
1580551200.912,36
1580551210.912,36
1580551220.912,36
1580551230.912,36
1580551240.912,36
1580551250.912,36
1580551260.913,36
1580551270.912,36
1580551280.913,36
1580551290.912,36
1580551300.913,36
1580551310.912,36
1580551330.912,36
1580551340.912,36
1580551350.912,36
1580551360.912,36
1580551370.912,36
1580551380.913,36
1580551390.912,36
1580551400.913,36
1580551410.912,36
1580551420.913,36
1580551430.913,36
1580551450.912,36
1580551460.912,36
1580551470.913,36
1580551480.912,36
1580551490.912,36
1580551500.912,37
1580551510.912,37
1580551520.912,37
1580551530.912,37
1580551540.912,37
1580551550.913,37
1580551560.912,37
1580551570.912,37
1580551580.912,37
1580551590.912,37
1580551600.912,37
1580551610.913,37
1580551620.912,37
