epoch,value
1579810522.578,6065
1579810532.549,6065
1579810542.546,6065
1579810552.546,6065
1579810562.549,6065
1579810572.546,6065
1579810582.546,6065
1579810592.546,6065
1579810602.546,6065
1579810612.546,6065
1579810622.549,6065
1579810632.546,6065
1579810642.546,6065
1579810652.547,6065
1579810662.549,6065
1579810672.548,6065
1579810682.546,6065
1579810692.546,6065
1579810702.547,6065
1579810712.546,6065
1579810722.546,6065
1579810732.546,6065
1579810742.546,6065
1579810752.547,6065
1579810762.546,6065
1579810772.548,6065
1579810782.547,6065
1579810792.546,6065
1579810802.546,6065
1579810812.546,6065
1579810822.546,6065
1579810832.546,6065
1579810842.546,6065
1579810852.546,6065
1579810862.546,6065
1579810872.546,6065
1579810882.546,6065
1579810892.546,6065
1579810902.546,6065
1579810912.546,6065
1579810922.546,6065
1579810932.546,6065
1579810942.546,6065
1579810952.546,6065
1579810962.547,6065
1579810972.546,6065
1579810982.546,6065
1579810992.546,6065
1579811002.546,6065
1579811012.546,6065
1579811022.546,6065
1579811032.546,6065
1579811042.546,6065
1579811052.548,6065
1579811062.546,6065
1579811072.546,6065
1579811082.546,6065
1579811092.546,6065
1579811102.546,6065
1579811112.546,6065
1579811122.547,6066
1579811132.547,6066
1579811142.546,6066
1579811152.546,6066
1579811162.546,6066
1579811172.546,6066
1579811182.546,6068
1579811192.546,6069
1579811202.546,6069
1579811212.546,6069
1579811222.546,6069
1579811232.546,6069
1579811242.546,6069
1579811252.546,6069
1579811262.546,6069
1579811272.546,6069
1579811282.546,6069
1579811292.546,6069
1579811302.546,6069
1579811312.546,6069
1579811322.546,6069
1579811332.546,6069
1579811342.546,6069
1579811352.546,6069
1579811362.546,6069
1579811372.546,6069
1579811382.546,6069
1579811392.546,6069
1579811402.547,6069
1579811412.547,6069
1579811422.547,6069
1579811432.546,6069
1579811442.547,6069
1579811452.546,6069
1579811462.546,6069
1579811472.546,6069
1579811482.546,6069
1579811492.547,6069
1579811502.546,6069
1579811512.546,6069
1579811522.546,6069
1579811532.548,6069
1579811542.548,6069
1579811552.546,6069
1579811562.546,6069
1579811572.549,6069
1579811582.546,6069
1579811592.546,6069
1579811602.546,6069
1579811612.546,6069
1579811622.546,6069
1579811632.546,6069
1579811642.546,6069
1579811652.546,6069
1579811662.546,6069
1579811672.546,6069
1579811682.547,6069
1579811692.547,6069
1579811702.546,6069
1579811712.547,6069
1579811722.546,6069
1579811732.546,6069
1579811742.547,6069
1579811752.546,6069
1579811762.546,6069
1579811772.546,6069
1579811782.546,6069
1579811792.547,6069
1579811802.546,6069
1579811812.546,6069
1579811822.546,6069
1579811832.546,6069
1579811842.546,6069
1579811852.547,6069
1579811862.546,6069
1579811872.546,6069
1579811882.549,6069
1579811892.546,6069
1579811902.546,6069
1579811912.546,6069
1579811922.546,6069
1579811932.546,6069
1579811942.546,6069
1579811952.546,6069
1579811962.546,6069
1579811972.547,6069
1579811982.546,6069
1579811992.546,6069
1579812002.546,6069
1579812012.547,6069
1579812022.547,6069
1579812032.546,6069
1579812042.547,6069
1579812052.546,6069
1579812062.546,6069
1579812072.546,6069
1579812082.546,6069
