epoch,value
1579940004.463,0
1579940014.463,0
1579940024.463,0
1579940034.463,0
1579940044.463,0
1579940054.463,0
1579940064.463,0
1579940074.463,0
1579940084.463,0
1579940094.463,0
1579940104.467,0
1579940114.463,0
1579940124.463,0
1579940134.463,0
1579940144.463,0
1579940154.463,0
1579940164.463,0
1579940174.463,0
1579940184.463,0
1579940194.463,0
1579940204.463,0
1579940214.463,0
1579940224.463,0
1579940234.463,0
1579940244.463,0
1579940254.463,0
1579940264.463,0
1579940274.463,0
1579940284.463,0
1579940294.463,0
1579940304.463,0
1579940314.463,1
1579940324.464,1
1579940334.463,1
1579940344.463,1
1579940354.463,1
1579940364.463,1
1579940374.463,1
1579940384.463,1
1579940394.463,1
1579940404.463,1
1579940414.463,1
1579940424.463,1
1579940434.463,1
1579940444.463,1
1579940454.463,1
1579940464.463,1
1579940474.463,1
1579940484.463,1
1579940494.463,1
1579940504.463,1
1579940514.463,1
1579940524.463,1
1579940534.463,1
1579940544.463,1
1579940554.463,1
1579940564.463,1
1579940574.463,1
1579940584.463,1
1579940594.463,1
1579940604.463,1
1579940614.463,1
1579940624.463,1
1579940634.463,1
1579940644.463,1
1579940654.463,2
1579940664.463,2
1579940674.463,2
1579940684.463,2
1579940694.463,2
1579940704.463,2
1579940714.463,2
1579940724.463,2
1579940734.463,2
1579940744.463,2
1579940754.463,2
1579940764.463,2
1579940774.463,2
1579940784.463,2
1579940794.463,2
1579940804.463,2
1579940814.463,2
1579940824.463,2
1579940834.463,3
1579940844.463,3
1579940854.463,3
1579940864.463,3
1579940874.463,3
1579940884.463,3
1579940894.463,3
1579940904.463,3
1579940914.463,3
1579940924.463,3
1579940934.463,3
1579940944.463,3
1579940954.463,3
1579940964.463,3
1579940974.463,3
1579940984.463,3
1579940994.463,3
1579941004.463,3
1579941014.463,3
1579941024.463,3
1579941034.463,3
1579941044.463,3
1579941054.463,3
1579941064.463,3
1579941074.463,4
1579941084.463,4
1579941094.463,4
1579941104.463,4
1579941114.463,4
1579941124.466,4
1579941134.463,4
1579941144.463,4
1579941154.463,4
1579941164.463,4
1579941174.463,4
1579941184.463,4
1579941194.463,4
1579941204.463,4
1579941214.463,4
1579941224.463,4
1579941234.463,4
1579941244.463,4
1579941254.463,4
1579941264.463,4
1579941274.463,4
1579941284.463,4
1579941294.463,4
1579941304.463,4
1579941314.463,4
1579941324.463,4
1579941334.463,4
1579941344.465,4
1579941354.463,4
1579941364.463,4
1579941374.463,4
1579941384.463,5
1579941394.463,5
1579941404.463,5
1579941414.463,5
1579941424.463,5
1579941434.463,5
1579941444.463,5
1579941454.463,5
1579941464.463,5
1579941484.463,5
1579941494.463,5
1579941504.463,5
1579941514.463,5
1579941524.465,5
1579941534.463,5
1579941544.463,5
1579941554.463,5
1579941564.463,5
1579941574.463,5
1579941584.463,5
1579941594.463,5
1579941604.463,5
1579941614.467,5
1579941624.463,5
1579941634.463,5
1579941654.463,5
1579941664.463,5
1579941674.463,5
1579941684.463,5
1579941694.463,5
1579941704.463,5
1579941714.463,5
1579941724.463,5
1579941734.463,5
1579941744.463,5
1579941754.463,5
1579941764.463,6
1579941774.463,6
1579941784.463,6
1579941794.463,6
1579941804.463,6
1579941814.463,6
1579941824.466,6
1579941834.463,6
1579941844.463,6
1579941854.463,6
1579941864.463,6
1579941874.463,6
1579941884.463,6
1579941894.463,6
1579941904.463,6
1579941914.464,6
1579941924.463,6
1579941934.463,6
1579941944.463,6
1579941954.463,6
1579941964.463,6
1579941974.463,6
1579941984.463,7
1579941994.463,7
1579942004.466,7
1579942014.463,7
1579942024.463,7
1579942034.463,7
1579942044.463,7
1579942054.463,7
1579942064.463,7
1579942074.463,7
1579942084.463,7
1579942094.463,7
1579942104.463,7
1579942114.463,7
1579942124.467,7
1579942134.463,7
1579942144.463,7
1579942154.463,7
1579942164.463,7
1579942174.464,7
1579942184.463,7
1579942194.463,7
1579942204.463,7
1579942214.463,7
1579942224.463,8
1579942234.463,8
1579942244.463,8
1579942254.463,8
1579942264.463,8
1579942274.463,8
1579942284.463,8
1579942294.463,8
1579942304.463,8
1579942314.463,8
1579942334.463,8
1579942344.463,8
1579942354.463,8
1579942364.463,8
1579942374.463,8
1579942384.463,8
1579942394.463,8
1579942404.467,8
1579942414.463,8
1579942424.463,8
1579942434.463,8
1579942444.463,8
1579942454.463,9
1579942464.463,9
1579942474.464,9
1579942484.467,9
1579942494.463,9
1579942504.463,9
1579942514.463,9
1579942524.463,9
1579942534.463,9
1579942544.463,9
1579942564.463,9
1579942574.463,9
1579942584.463,9
1579942594.463,9
1579942604.463,10
1579942614.463,10
