epoch,value
1579901708.198,247989
1579901718.162,247990
1579901728.161,247990
1579901738.162,247990
1579901748.161,247990
1579901758.161,247990
1579901768.162,247992
1579901778.161,247992
1579901788.161,247992
1579901798.161,247992
1579901808.161,247992
1579901818.161,247992
1579901828.162,247992
1579901838.161,247993
1579901848.162,247993
1579901858.162,247993
1579901868.161,247993
1579901878.161,247993
1579901888.162,247993
1579901898.161,247994
1579901908.161,247994
1579901918.161,247995
1579901928.163,247996
1579901938.161,247997
1579901948.164,248000
1579901958.161,248000
1579901968.161,248000
1579901978.161,248000
1579901988.161,248000
1579901998.162,248000
1579902008.161,248000
1579902018.161,248001
1579902028.161,248004
1579902038.161,248005
1579902048.161,248005
1579902058.161,248005
1579902068.161,248006
1579902078.161,248006
1579902088.162,248006
1579902098.161,248006
1579902108.162,248006
1579902118.164,248008
1579902128.161,248008
1579902138.161,248008
1579902148.162,248008
1579902158.162,248008
1579902168.162,248008
1579902178.165,248009
1579902188.162,248010
1579902198.161,248011
1579902208.161,248011
1579902218.161,248011
1579902228.161,248012
1579902238.162,248012
1579902248.162,248012
1579902258.161,248012
1579902268.163,248012
1579902278.161,248012
1579902288.162,248012
1579902298.162,248012
1579902308.163,248012
1579902318.162,248014
1579902328.161,248015
1579902338.162,248015
1579902348.161,248017
1579902358.161,248019
1579902368.162,248019
1579902378.162,248020
1579902388.161,248020
1579902398.162,248021
1579902408.163,248022
1579902418.161,248022
1579902428.161,248022
1579902438.161,248022
1579902448.161,248024
1579902458.161,248025
1579902468.162,248025
1579902478.162,248025
1579902488.162,248026
1579902498.161,248026
1579902508.162,248028
1579902518.161,248028
1579902528.161,248028
1579902538.164,248030
1579902548.161,248030
1579902558.161,248031
1579902568.162,248031
1579902578.162,248032
1579902588.161,248032
1579902598.162,248033
1579902608.162,248034
1579902618.161,248034
1579902628.162,248035
1579902638.161,248035
1579902648.161,248036
1579902658.162,248036
1579902668.162,248036
1579902678.162,248036
1579902688.162,248036
1579902698.162,248036
1579902708.161,248038
1579902718.162,248038
1579902728.161,248040
1579902738.161,248040
1579902748.161,248040
1579902758.163,248041
1579902768.161,248041
1579902778.161,248041
1579902788.163,248042
1579902798.161,248044
1579902808.165,248044
1579902818.162,248044
1579902828.163,248045
1579902838.161,248045
1579902848.162,248045
1579902858.162,248045
1579902868.165,248046
1579902878.162,248046
1579902888.161,248046
1579902898.161,248047
1579902908.162,248048
1579902918.161,248048
1579902928.162,248049
1579902938.162,248049
1579902948.161,248050
1579902958.161,248050
1579902968.161,248051
1579902978.161,248051
1579902988.161,248052
1579902998.162,248053
1579903008.161,248054
1579903018.161,248054
1579903028.162,248055
1579903038.162,248056
1579903048.161,248056
1579903058.161,248056
1579903068.161,248056
1579903078.161,248057
1579903088.161,248057
1579903098.161,248057
1579903108.161,248058
1579903118.161,248058
1579903128.162,248059
1579903138.161,248060
1579903148.161,248060
1579903158.162,248062
1579903168.161,248064
1579903178.161,248064
1579903188.161,248064
1579903198.161,248065
1579903208.161,248066
1579903218.162,248066
1579903228.161,248066
1579903238.161,248067
1579903248.162,248067
1579903258.161,248068
1579903268.163,248068
1579903278.161,248068
1579903288.161,248068
1579903298.161,248069
1579903308.161,248070
1579903318.161,248071
1579903328.161,248071
1579903338.161,248072
1579903348.162,248072
1579903358.164,248073
1579903368.162,248073
1579903378.164,248075
1579903388.163,248076
1579903398.162,248077
1579903408.161,248077
1579903418.161,248077
1579903428.162,248077
1579903438.161,248077
1579903448.161,248077
1579903458.161,248077
1579903468.161,248080
1579903478.161,248081
1579903488.161,248082
1579903498.162,248083
1579903508.162,248084
1579903518.162,248084
1579903528.162,248084
1579903538.161,248084
1579903548.163,248086
1579903558.162,248087
1579903568.161,248087
1579903578.161,248087
1579903588.161,248088
1579903598.162,248090
1579903608.161,248090
1579903618.161,248090
1579903628.163,248092
1579903638.162,248092
1579903648.162,248094
1579903658.161,248094
1579903668.162,248096
1579903678.161,248097
1579903688.161,248097
1579903698.161,248097
1579903708.162,248098
1579903718.161,248099
1579903728.161,248100
1579903738.165,248101
1579903748.161,248101
1579903758.162,248101
1579903768.161,248101
1579903778.162,248101
1579903788.162,248101
1579903798.162,248101
1579903808.163,248102
1579903818.161,248102
1579903828.161,248102
1579903838.162,248104
1579903848.161,248105
1579903858.163,248105
1579903868.162,248106
1579903878.161,248106
1579903888.161,248107
1579903898.161,248107
1579903908.161,248108
1579903918.162,248108
1579903928.162,248109
1579903938.162,248111
1579903948.161,248112
1579903958.161,248112
1579903968.162,248113
1579903978.162,248113
1579903988.161,248114
1579903998.162,248114
1579904008.162,248115
1579904018.161,248116
1579904028.162,248116
1579904038.161,248116
1579904048.162,248117
1579904058.161,248118
1579904068.162,248119
1579904078.162,248120
1579904088.163,248122
1579904098.161,248122
1579904108.161,248122
1579904118.161,248122
1579904128.161,248122
1579904138.161,248122
1579904148.161,248122
1579904158.161,248123
1579904168.164,248123
1579904178.162,248124
1579904188.161,248124
1579904198.162,248126
1579904208.161,248128
1579904218.162,248129
1579904228.161,248129
1579904238.162,248130
1579904248.162,248130
1579904258.161,248130
1579904268.161,248131
1579904278.161,248132
1579904288.161,248134
1579904298.164,248134
1579904308.161,248135
1579904318.161,248137
1579904328.162,248138
1579904338.161,248138
1579904348.161,248138
1579904358.161,248138
1579904368.162,248138
1579904378.161,248140
1579904388.161,248140
1579904398.161,248140
1579904408.162,248141
1579904418.163,248143
1579904428.163,248144
1579904438.161,248144
1579904448.161,248145
1579904458.161,248146
1579904468.162,248146
