epoch,value
1579924276.137,248702
1579924286.113,248702
1579924296.114,248702
1579924306.114,248703
1579924316.114,248703
1579924326.113,248704
1579924336.115,248704
1579924346.114,248704
1579924356.113,248704
1579924366.113,248705
1579924376.113,248705
1579924386.113,248705
1579924396.114,248706
1579924406.113,248706
1579924416.113,248707
1579924426.114,248707
1579924436.114,248708
1579924446.113,248708
1579924456.113,248708
1579924466.113,248708
1579924476.117,248709
1579924486.113,248709
1579924496.113,248709
1579924506.113,248709
1579924516.114,248710
1579924526.114,248710
1579924536.114,248710
1579924546.114,248710
1579924556.114,248710
1579924566.115,248711
1579924576.113,248711
1579924586.114,248712
1579924596.113,248712
1579924606.114,248714
1579924616.114,248714
1579924626.114,248714
1579924636.113,248714
1579924646.115,248714
1579924656.114,248715
1579924666.113,248716
1579924676.114,248717
1579924686.113,248717
1579924696.113,248717
1579924706.113,248717
1579924716.114,248718
1579924726.114,248719
1579924736.113,248720
1579924746.114,248721
1579924756.115,248722
1579924766.113,248724
1579924776.114,248724
1579924786.114,248725
1579924796.113,248726
1579924806.114,248727
1579924816.114,248728
1579924826.114,248728
1579924836.113,248728
1579924846.113,248728
1579924856.114,248728
1579924866.114,248728
1579924876.114,248731
1579924886.114,248732
1579924896.114,248732
1579924906.113,248735
1579924916.114,248736
1579924926.113,248736
1579924936.113,248736
1579924946.113,248737
1579924956.114,248738
1579924966.113,248738
1579924976.113,248738
1579924986.113,248739
1579924996.116,248739
1579925006.114,248739
1579925016.114,248740
1579925026.113,248741
1579925036.113,248741
1579925046.113,248741
1579925056.114,248743
1579925066.114,248744
1579925076.113,248745
1579925086.115,248746
1579925096.114,248746
1579925106.113,248748
1579925116.115,248748
1579925126.114,248748
1579925136.113,248748
1579925146.113,248750
1579925156.114,248751
1579925166.113,248752
1579925176.114,248754
1579925186.113,248754
1579925196.114,248755
1579925206.113,248756
1579925216.114,248758
1579925226.114,248758
1579925236.114,248758
1579925246.113,248758
1579925256.113,248760
1579925266.113,248760
1579925276.113,248760
1579925286.114,248761
1579925296.113,248761
1579925306.114,248761
1579925316.114,248761
1579925326.115,248761
1579925336.113,248761
1579925346.114,248762
1579925356.113,248762
1579925366.114,248764
1579925376.113,248765
1579925386.113,248765
1579925396.113,248765
1579925406.113,248765
1579925416.114,248765
1579925426.113,248765
1579925436.113,248765
1579925446.114,248767
1579925456.114,248767
1579925466.114,248767
1579925476.114,248767
1579925486.113,248768
1579925496.114,248770
1579925506.113,248770
1579925516.113,248771
1579925526.114,248771
1579925536.113,248772
1579925546.114,248774
1579925556.114,248774
1579925566.113,248775
1579925576.113,248777
1579925586.114,248777
1579925596.114,248778
1579925606.113,248779
1579925616.114,248779
1579925626.114,248779
1579925636.113,248781
1579925646.113,248781
1579925656.113,248783
1579925666.113,248783
1579925676.114,248783
1579925686.113,248784
1579925696.113,248784
1579925706.113,248785
1579925716.114,248785
1579925726.113,248785
1579925736.114,248785
1579925746.114,248785
1579925756.113,248786
1579925766.116,248786
1579925776.114,248786
1579925786.114,248787
1579925796.114,248788
1579925806.114,248789
1579925816.114,248790
1579925826.114,248790
1579925836.115,248790
1579925846.114,248790
1579925856.113,248790
1579925866.113,248792
1579925876.114,248793
1579925886.115,248794
1579925896.114,248794
1579925906.113,248795
1579925916.114,248795
1579925926.114,248795
1579925936.115,248796
1579925946.114,248796
1579925956.115,248796
1579925966.113,248797
1579925976.113,248797
1579925986.114,248797
1579925996.114,248797
1579926006.113,248798
1579926016.114,248798
1579926026.113,248798
1579926036.114,248800
1579926046.113,248802
1579926056.113,248802
1579926066.113,248802
1579926076.113,248803
1579926086.113,248803
1579926096.113,248803
1579926106.113,248803
1579926116.114,248803
1579926126.114,248804
1579926136.114,248804
1579926146.114,248804
1579926156.113,248805
1579926166.114,248805
1579926176.113,248806
1579926186.113,248807
1579926196.113,248808
1579926206.115,248808
1579926216.113,248810
1579926226.114,248811
1579926236.113,248812
1579926246.113,248813
1579926256.114,248813
1579926266.113,248815
1579926276.114,248816
1579926286.113,248817
1579926296.113,248818
1579926306.113,248818
1579926316.114,248820
1579926326.113,248820
1579926336.115,248820
1579926346.115,248821
1579926356.114,248821
1579926366.114,248821
1579926376.113,248822
1579926386.115,248823
1579926396.113,248824
1579926406.115,248825
1579926416.114,248825
1579926426.114,248825
1579926436.114,248826
1579926446.114,248827
1579926456.115,248828
1579926466.113,248829
1579926476.114,248829
1579926486.113,248829
1579926496.113,248830
1579926506.113,248831
1579926516.114,248832
1579926526.114,248832
1579926536.113,248832
1579926546.113,248833
1579926556.114,248833
1579926566.113,248833
1579926576.114,248833
1579926586.114,248834
1579926596.114,248834
1579926606.114,248836
1579926616.114,248837
1579926626.113,248838
1579926636.113,248838
1579926646.113,248838
1579926656.113,248838
1579926666.113,248840
1579926676.114,248841
1579926686.113,248841
1579926696.114,248843
1579926706.114,248844
1579926716.117,248844
1579926726.113,248844
1579926736.113,248845
1579926746.116,248847
1579926756.114,248848
1579926766.115,248849
1579926776.113,248850
1579926786.114,248851
1579926796.113,248852
1579926806.114,248852
1579926816.114,248854
1579926826.114,248855
1579926836.113,248856
1579926846.114,248857
1579926856.114,248857
1579926866.114,248858
1579926876.115,248859
1579926886.114,248859
1579926896.116,248859
1579926906.114,248860
1579926916.114,248861
1579926926.113,248862
1579926936.113,248862
1579926946.114,248862
1579926956.115,248864
1579926966.113,248865
1579926976.113,248866
1579926986.113,248867
1579926996.114,248867
1579927006.114,248867
1579927016.114,248869
1579927026.115,248869
1579927036.114,248872
