epoch,value
1580476344.398,12766
1580476354.383,12766
1580476364.381,12766
1580476374.382,12766
1580476384.382,12766
1580476394.381,12766
1580476404.381,12766
1580476414.381,12766
1580476424.381,12766
1580476434.381,12766
1580476444.381,12766
1580476454.381,12766
1580476464.381,12766
1580476474.381,12766
1580476484.382,12766
1580476494.381,12766
1580476504.383,12766
1580476514.383,12766
1580476524.381,12766
1580476534.382,12766
1580476544.381,12766
1580476554.381,12766
1580476564.381,12766
1580476574.381,12766
1580476584.382,12766
1580476594.381,12766
1580476604.382,12766
1580476614.382,12766
1580476624.384,12766
1580476634.381,12766
1580476644.381,12766
1580476654.381,12766
1580476664.381,12766
1580476674.382,12766
1580476684.381,12766
1580476694.381,12766
1580476704.381,12766
1580476714.381,12766
1580476724.381,12766
1580476734.381,12766
1580476744.381,12766
1580476754.381,12766
1580476764.382,12766
1580476774.381,12766
1580476784.381,12766
1580476794.381,12766
1580476804.381,12766
1580476814.381,12766
1580476824.381,12766
1580476834.381,12766
1580476844.381,12766
1580476854.381,12766
1580476864.381,12766
1580476874.382,12766
1580476884.382,12766
1580476894.381,12766
1580476904.382,12766
1580476914.381,12766
1580476924.381,12766
1580476934.381,12766
1580476944.381,12766
1580476954.381,12766
1580476964.381,12766
1580476974.382,12766
1580476984.381,12766
1580476994.381,12766
1580477004.382,12766
1580477014.381,12766
1580477024.381,12766
1580477034.381,12766
1580477044.381,12766
1580477054.382,12766
1580477064.381,12766
1580477074.381,12766
1580477084.381,12766
1580477094.381,12766
1580477104.381,12766
1580477114.381,12766
1580477124.381,12766
1580477134.381,12766
1580477144.381,12766
1580477154.381,12766
1580477164.381,12766
1580477174.381,12766
1580477184.381,12766
1580477194.381,12766
1580477204.381,12766
1580477214.381,12766
1580477224.381,12766
1580477234.381,12766
1580477244.381,12766
1580477254.381,12766
1580477264.381,12766
1580477274.381,12766
1580477284.382,12766
1580477294.381,12766
1580477304.381,12766
1580477314.381,12766
1580477324.384,12766
1580477334.384,12766
1580477344.381,12766
1580477354.381,12766
1580477364.382,12766
1580477374.381,12766
1580477384.381,12766
1580477394.381,12766
1580477404.381,12766
1580477414.381,12766
1580477424.381,12766
1580477434.381,12766
1580477444.381,12766
1580477454.382,12766
1580477464.381,12766
1580477474.381,12766
1580477484.381,12766
1580477494.381,12766
1580477504.381,12766
1580477514.381,12766
1580477524.381,12766
1580477534.381,12766
1580477544.382,12766
1580477554.383,12766
1580477564.382,12766
1580477574.381,12766
1580477584.381,12766
1580477594.381,12766
1580477604.381,12766
1580477614.381,12766
1580477624.381,12766
1580477634.381,12766
1580477644.382,12766
1580477654.381,12766
1580477664.381,12766
1580477674.381,12766
1580477684.381,12766
1580477694.381,12766
1580477704.383,12766
1580477714.382,12766
1580477724.381,12766
1580477734.381,12766
1580477744.383,12766
1580477754.383,12766
1580477764.382,12766
1580477774.381,12766
1580477784.383,12766
1580477794.381,12766
1580477804.381,12766
1580477814.381,12766
1580477824.381,12766
1580477834.381,12766
1580477844.382,12766
1580477854.381,12766
1580477864.382,12766
1580477874.381,12766
1580477884.381,12766
1580477894.383,12766
1580477904.381,12766
