epoch,value
1579921279.434,248504
1579921289.417,248504
1579921299.415,248505
1579921309.413,248505
1579921319.413,248506
1579921329.414,248506
1579921339.413,248506
1579921349.413,248507
1579921359.413,248507
1579921369.413,248507
1579921379.414,248508
1579921389.413,248508
1579921399.414,248509
1579921409.413,248511
1579921419.413,248511
1579921429.413,248511
1579921439.415,248512
1579921449.413,248512
1579921459.413,248513
1579921469.413,248514
1579921479.413,248514
1579921489.413,248514
1579921499.414,248514
1579921509.413,248514
1579921519.413,248515
1579921529.413,248516
1579921539.413,248516
1579921549.413,248516
1579921559.413,248516
1579921569.414,248516
1579921579.413,248517
1579921589.413,248517
1579921599.413,248517
1579921609.413,248517
1579921619.418,248518
1579921629.415,248518
1579921639.413,248518
1579921649.413,248519
1579921659.413,248519
1579921669.415,248520
1579921679.413,248522
1579921689.415,248524
1579921699.413,248524
1579921709.413,248524
1579921719.413,248526
1579921729.413,248526
1579921739.413,248526
1579921749.413,248526
1579921759.414,248527
1579921769.413,248527
1579921779.413,248527
1579921789.413,248527
1579921799.413,248528
1579921809.415,248528
1579921819.413,248528
1579921829.414,248529
1579921839.414,248529
1579921849.415,248530
1579921859.413,248530
1579921869.413,248531
1579921879.416,248533
1579921889.413,248533
1579921899.415,248534
1579921909.413,248534
1579921919.413,248534
1579921929.413,248534
1579921939.416,248534
1579921949.414,248536
1579921959.415,248536
1579921969.413,248536
1579921979.413,248537
1579921989.414,248537
1579921999.413,248538
1579922009.413,248539
1579922019.413,248541
1579922029.413,248541
1579922039.415,248542
1579922049.417,248543
1579922059.413,248545
1579922069.413,248545
1579922079.413,248546
1579922089.413,248546
1579922099.414,248547
1579922109.413,248547
1579922119.413,248548
1579922129.413,248548
1579922139.413,248548
1579922149.413,248548
1579922159.413,248548
1579922169.414,248550
1579922179.414,248551
1579922189.414,248551
1579922199.413,248551
1579922209.413,248551
1579922219.414,248551
1579922229.413,248551
1579922239.413,248552
1579922249.413,248552
1579922259.414,248554
1579922269.415,248554
1579922279.413,248555
1579922289.413,248556
1579922299.414,248558
1579922309.415,248558
1579922319.414,248558
1579922329.413,248560
1579922339.413,248561
1579922349.413,248561
1579922359.413,248563
1579922369.413,248563
1579922379.413,248564
1579922389.413,248566
1579922399.413,248566
1579922409.414,248566
1579922419.415,248567
1579922429.413,248567
1579922439.413,248567
1579922449.413,248568
1579922459.415,248569
1579922469.415,248569
1579922479.414,248569
1579922489.413,248569
1579922499.415,248570
1579922509.415,248570
1579922519.414,248572
1579922529.413,248573
1579922539.413,248573
1579922549.414,248573
1579922559.413,248574
1579922569.413,248574
1579922579.413,248574
1579922589.413,248574
1579922599.413,248574
1579922609.413,248575
1579922619.413,248576
1579922629.416,248577
1579922639.413,248577
1579922649.414,248577
1579922659.415,248578
1579922669.413,248580
1579922679.413,248580
1579922689.414,248581
1579922699.413,248583
1579922709.414,248583
1579922719.414,248584
1579922729.413,248584
1579922739.413,248584
1579922749.413,248584
1579922759.416,248584
1579922769.413,248586
1579922779.413,248586
1579922789.413,248586
1579922799.414,248588
1579922809.416,248589
1579922819.416,248589
1579922829.415,248590
1579922839.414,248590
1579922849.415,248591
1579922859.413,248592
1579922869.413,248592
1579922879.413,248592
1579922889.415,248592
1579922899.416,248593
1579922909.414,248593
1579922919.414,248593
1579922929.413,248594
1579922939.413,248594
1579922949.413,248595
1579922959.415,248596
1579922969.414,248596
1579922979.413,248600
1579922989.413,248600
1579922999.414,248600
1579923009.413,248602
1579923019.413,248602
1579923029.413,248603
1579923039.414,248603
1579923049.414,248603
1579923059.413,248603
1579923069.414,248603
1579923079.413,248603
1579923089.413,248603
1579923099.414,248603
1579923109.414,248604
1579923119.416,248604
1579923129.413,248604
1579923139.413,248606
1579923149.414,248606
1579923159.413,248606
1579923169.414,248607
1579923179.413,248608
1579923189.413,248608
1579923199.413,248608
1579923209.413,248608
1579923219.413,248609
1579923229.413,248609
1579923239.413,248610
1579923249.414,248610
1579923259.413,248612
1579923269.413,248612
1579923279.416,248612
1579923289.413,248614
1579923299.413,248614
1579923309.413,248615
1579923319.413,248617
1579923329.414,248617
1579923339.413,248617
1579923349.414,248617
1579923359.414,248617
1579923369.413,248617
1579923379.416,248618
1579923389.413,248618
1579923399.413,248619
1579923409.413,248620
1579923419.414,248620
1579923429.415,248621
1579923439.413,248621
1579923449.413,248621
1579923459.414,248621
1579923469.414,248621
1579923479.413,248622
1579923489.413,248624
1579923499.413,248624
1579923509.413,248624
1579923519.414,248627
1579923529.413,248627
1579923539.413,248628
1579923549.413,248628
1579923559.414,248629
1579923569.415,248630
1579923579.413,248632
1579923589.413,248634
1579923599.416,248634
1579923609.413,248636
1579923619.413,248636
1579923629.413,248637
1579923639.413,248638
1579923649.413,248638
1579923659.413,248638
1579923669.413,248638
1579923679.413,248640
1579923689.414,248640
1579923699.413,248641
1579923709.413,248641
1579923719.413,248642
1579923729.413,248642
1579923739.415,248642
1579923749.413,248644
1579923759.413,248644
1579923769.413,248644
1579923779.416,248645
1579923789.413,248645
1579923799.416,248646
1579923809.417,248646
1579923819.416,248646
1579923829.413,248647
1579923839.413,248647
1579923849.415,248647
1579923859.413,248647
1579923869.413,248647
1579923879.413,248648
1579923889.413,248650
1579923899.414,248651
1579923909.414,248652
1579923919.413,248653
1579923929.413,248654
1579923939.413,248654
1579923949.416,248654
1579923959.413,248655
1579923969.414,248657
1579923979.413,248658
1579923989.415,248659
1579923999.414,248660
1579924009.413,248662
1579924019.414,248663
1579924029.414,248664
1579924039.414,248665
