epoch,value
1580472801.116,411399
1580472811.101,411399
1580472821.098,411401
1580472831.099,411401
1580472841.099,411402
1580472851.100,411402
1580472861.098,411402
1580472871.098,411402
1580472881.098,411402
1580472891.099,411402
1580472901.098,411404
1580472911.098,411404
1580472921.098,411404
1580472931.098,411406
1580472941.099,411406
1580472951.100,411406
1580472961.099,411406
1580472971.098,411406
1580472981.102,411406
1580472991.098,411406
1580473001.098,411406
1580473011.100,411406
1580473021.098,411407
1580473031.098,411407
1580473041.098,411409
1580473051.098,411411
1580473061.098,411412
1580473071.098,411412
1580473081.098,411412
1580473091.098,411412
1580473101.098,411412
1580473111.098,411413
1580473121.099,411413
1580473131.099,411414
1580473141.100,411415
1580473151.098,411416
1580473161.101,411416
1580473171.098,411416
1580473181.101,411419
1580473191.098,411420
1580473201.098,411420
1580473211.098,411421
1580473221.098,411421
1580473231.099,411423
1580473241.098,411423
1580473251.098,411423
1580473261.099,411423
1580473271.098,411424
1580473281.098,411424
1580473291.098,411426
1580473301.098,411427
1580473311.100,411428
1580473321.099,411428
1580473331.098,411428
1580473341.098,411430
1580473351.098,411430
1580473361.098,411431
1580473371.099,411432
1580473381.098,411432
1580473391.099,411432
1580473401.098,411433
1580473411.098,411434
1580473421.098,411435
1580473431.099,411435
1580473441.098,411435
1580473451.098,411435
1580473461.099,411435
1580473471.099,411436
1580473481.099,411437
1580473491.098,411438
1580473501.098,411438
1580473511.098,411438
1580473521.098,411438
1580473531.098,411438
1580473541.099,411440
1580473551.099,411440
1580473561.098,411441
1580473571.099,411441
1580473581.098,411442
1580473591.098,411443
1580473601.098,411443
1580473611.098,411443
1580473621.098,411443
1580473631.098,411443
1580473641.098,411444
1580473651.098,411445
1580473661.099,411445
1580473671.098,411445
1580473681.098,411445
1580473691.098,411445
1580473701.098,411445
1580473711.099,411445
1580473721.098,411446
1580473731.098,411448
1580473741.098,411449
1580473751.098,411450
1580473761.101,411453
1580473771.098,411453
1580473781.099,411454
1580473791.098,411454
1580473801.101,411455
1580473811.098,411455
1580473821.098,411455
1580473831.099,411455
1580473841.099,411458
1580473851.098,411459
1580473861.099,411459
1580473871.098,411461
1580473881.098,411461
1580473891.100,411462
1580473901.099,411462
1580473911.098,411462
1580473921.098,411462
1580473931.099,411462
1580473941.098,411462
1580473951.098,411462
1580473961.100,411462
1580473971.098,411462
1580473981.098,411462
1580473991.098,411462
1580474001.100,411462
1580474011.098,411462
1580474021.098,411462
1580474031.098,411462
1580474041.100,411462
1580474051.098,411462
1580474061.098,411462
1580474071.098,411464
1580474081.098,411464
1580474091.099,411464
1580474101.098,411464
1580474111.098,411464
1580474121.098,411465
1580474131.098,411465
1580474141.098,411465
1580474151.098,411465
1580474161.098,411465
1580474171.101,411465
1580474181.098,411466
1580474191.098,411468
1580474201.098,411469
1580474211.098,411470
1580474221.098,411470
1580474231.101,411471
1580474241.098,411473
1580474251.098,411473
1580474261.098,411474
1580474271.098,411474
1580474281.098,411475
1580474291.102,411476
1580474301.098,411476
1580474311.099,411477
1580474321.098,411477
1580474331.098,411477
1580474341.099,411478
1580474351.098,411479
1580474361.098,411479
