epoch,value
1580469323.216,41175
1580469333.197,41175
1580469343.197,41175
1580469353.200,41175
1580469363.199,41175
1580469373.196,41175
1580469383.197,41175
1580469393.197,41175
1580469403.197,41175
1580469413.196,41175
1580469423.197,41175
1580469433.197,41175
1580469443.197,41175
1580469453.196,41175
1580469463.197,41175
1580469473.197,41175
1580469483.197,41175
1580469493.197,41176
1580469503.197,41176
1580469513.197,41176
1580469523.198,41176
1580469533.197,41177
1580469543.197,41177
1580469553.197,41177
1580469563.197,41177
1580469573.197,41177
1580469583.197,41177
1580469593.197,41177
1580469603.198,41178
1580469613.197,41178
1580469623.197,41178
1580469633.197,41178
1580469643.197,41178
1580469653.197,41178
1580469663.197,41178
1580469673.197,41178
1580469683.197,41178
1580469693.197,41178
1580469703.197,41178
1580469713.197,41178
1580469723.197,41179
1580469733.197,41179
1580469743.198,41179
1580469753.197,41179
1580469763.197,41179
1580469773.197,41179
1580469783.197,41179
1580469793.197,41179
1580469803.197,41179
1580469813.197,41179
1580469823.198,41179
1580469833.197,41179
1580469843.197,41179
1580469853.197,41179
1580469863.199,41179
1580469873.197,41179
1580469883.197,41179
1580469893.197,41180
1580469903.196,41180
1580469913.197,41180
1580469923.197,41180
1580469933.199,41180
1580469943.197,41180
1580469953.198,41180
1580469963.197,41180
1580469973.197,41180
1580469983.197,41180
1580469993.197,41181
1580470003.198,41181
1580470013.196,41182
1580470023.199,41182
1580470033.197,41182
1580470043.197,41182
1580470053.197,41182
1580470063.197,41182
1580470073.197,41182
1580470083.197,41182
1580470093.197,41182
1580470103.197,41182
1580470113.199,41182
1580470123.197,41182
1580470133.197,41183
1580470143.197,41184
1580470153.197,41184
1580470163.197,41184
1580470173.198,41184
1580470183.197,41184
1580470193.197,41184
1580470203.199,41184
1580470213.197,41184
1580470223.198,41184
1580470233.197,41185
1580470243.197,41186
1580470253.197,41186
1580470263.197,41186
1580470273.197,41186
1580470283.197,41186
1580470293.197,41186
1580470303.197,41186
1580470313.200,41186
1580470323.197,41186
1580470333.197,41186
1580470343.198,41187
1580470353.197,41187
1580470363.197,41187
1580470373.201,41188
1580470383.197,41188
1580470393.197,41188
1580470403.197,41188
1580470413.197,41188
1580470423.197,41188
1580470433.201,41188
1580470443.197,41188
1580470453.198,41188
1580470463.197,41189
1580470473.199,41189
1580470483.197,41189
1580470493.197,41190
1580470503.197,41190
1580470513.197,41190
1580470523.197,41190
1580470533.197,41190
1580470543.197,41190
1580470553.197,41190
1580470563.197,41190
1580470573.197,41190
1580470583.199,41190
1580470593.197,41190
1580470603.197,41190
1580470613.197,41191
1580470623.197,41191
1580470633.197,41191
1580470643.197,41191
1580470653.197,41191
1580470663.197,41192
1580470673.197,41192
1580470683.197,41193
1580470693.197,41193
1580470703.197,41193
1580470713.197,41194
1580470723.197,41194
1580470733.197,41194
1580470743.199,41194
1580470753.197,41194
1580470763.197,41194
1580470773.197,41194
1580470783.197,41194
1580470793.197,41197
1580470803.197,41198
1580470813.200,41198
1580470823.197,41198
1580470833.197,41198
1580470843.197,41198
1580470853.200,41198
1580470863.198,41198
1580470873.197,41198
1580470883.197,41198
