epoch,value
1580474569.182,0
1580474579.182,0
1580474589.182,0
1580474599.182,0
1580474609.182,0
1580474619.182,0
1580474629.182,0
1580474639.182,0
1580474649.182,0
1580474659.182,0
1580474669.182,0
1580474679.182,0
1580474689.182,0
1580474699.182,0
1580474709.182,0
1580474719.182,0
1580474729.182,0
1580474739.182,0
1580474749.182,0
1580474759.182,0
1580474769.182,0
1580474779.182,0
1580474789.182,0
1580474799.182,0
1580474809.182,0
1580474819.182,0
1580474829.182,0
1580474839.182,0
1580474849.182,0
1580474859.182,0
1580474869.182,0
1580474879.182,0
1580474889.182,0
1580474899.182,0
1580474909.182,0
1580474919.182,0
1580474929.182,0
1580474939.182,0
1580474949.182,0
1580474959.182,0
1580474969.182,0
1580474979.182,0
1580474989.182,0
1580474999.182,1
1580475009.182,1
1580475019.182,1
1580475029.182,1
1580475039.182,1
1580475049.182,1
1580475059.182,1
1580475069.182,1
1580475079.182,1
1580475089.182,1
1580475099.182,1
1580475109.182,1
1580475119.182,1
1580475129.182,1
1580475139.182,1
1580475149.182,1
1580475159.182,1
1580475169.182,1
1580475179.182,1
1580475189.182,1
1580475199.182,1
1580475209.182,1
1580475219.182,1
1580475229.182,1
1580475239.182,1
1580475249.182,1
1580475259.182,1
1580475269.182,1
1580475279.182,1
1580475289.182,1
1580475299.182,1
1580475309.182,1
1580475319.182,1
1580475329.182,1
1580475339.182,1
1580475349.182,1
1580475359.182,1
1580475369.182,1
1580475379.182,1
1580475389.182,1
1580475399.182,2
1580475409.182,2
1580475419.182,2
1580475429.182,2
1580475439.182,2
1580475449.182,2
1580475459.182,2
1580475469.182,2
1580475479.182,2
1580475489.182,2
1580475509.182,2
1580475519.182,2
1580475529.182,2
1580475539.182,2
1580475549.182,2
1580475559.182,2
1580475569.182,2
1580475579.182,2
1580475589.182,2
1580475599.182,2
1580475609.182,2
1580475619.182,2
1580475629.182,2
1580475639.182,2
1580475649.182,2
1580475659.182,2
1580475669.182,2
1580475679.182,2
1580475689.182,3
1580475699.182,3
1580475709.182,3
1580475719.182,3
1580475729.182,3
1580475739.182,3
1580475749.182,3
1580475759.182,3
1580475769.182,3
1580475779.182,3
1580475789.189,3
1580475799.182,3
1580475809.182,3
1580475819.182,3
1580475829.184,3
1580475839.182,3
1580475849.182,3
1580475859.182,3
1580475869.182,3
1580475879.182,3
1580475889.182,3
1580475899.182,3
1580475909.182,3
1580475919.182,3
1580475929.182,3
1580475939.182,3
1580475949.182,3
1580475959.182,3
1580475969.182,3
1580475979.182,3
1580475989.182,3
1580475999.182,3
1580476009.182,3
1580476019.182,3
1580476029.182,3
1580476039.182,3
1580476049.182,3
1580476059.182,3
1580476069.185,3
1580476079.182,3
1580476089.182,3
1580476099.182,3
