epoch,value
1579790489.935,0
1579790499.935,0
1579790509.935,0
1579790519.935,0
1579790529.935,0
1579790539.935,0
1579790549.935,0
1579790559.935,0
1579790569.935,0
1579790579.935,0
1579790589.935,0
1579790599.935,0
1579790609.935,0
1579790619.935,0
1579790629.935,0
1579790639.935,0
1579790649.935,1
1579790659.935,1
1579790669.935,1
1579790679.935,1
1579790689.935,1
1579790699.935,1
1579790709.935,1
1579790719.935,1
1579790729.935,1
1579790739.935,1
1579790749.935,1
1579790759.935,1
1579790769.935,1
1579790779.935,1
1579790789.935,2
1579790799.935,2
1579790809.935,2
1579790819.935,2
1579790829.935,2
1579790839.935,2
1579790849.935,2
1579790859.935,3
1579790869.935,3
1579790879.935,3
1579790889.935,3
1579790899.935,3
1579790909.935,3
1579790919.935,3
1579790929.935,3
1579790939.935,3
1579790949.935,3
1579790959.935,3
1579790969.935,3
1579790979.935,3
1579790989.935,4
1579790999.935,4
1579791009.935,4
1579791019.935,4
1579791029.935,4
1579791039.935,4
1579791049.935,4
1579791059.939,4
1579791069.935,4
1579791079.935,5
1579791089.935,5
1579791099.935,5
1579791109.935,5
1579791119.935,5
1579791129.935,5
1579791139.935,5
1579791149.935,5
1579791159.935,5
1579791169.935,5
1579791179.935,5
1579791189.935,5
1579791199.935,5
1579791209.935,5
1579791219.935,5
1579791229.935,5
1579791239.935,6
1579791249.935,6
1579791259.935,6
1579791269.935,6
1579791279.935,6
1579791289.935,6
1579791299.935,6
1579791309.935,6
1579791319.935,6
1579791329.935,6
1579791339.935,6
1579791349.937,6
1579791359.935,7
1579791369.935,7
1579791379.935,7
1579791389.935,7
1579791399.935,7
1579791409.935,7
1579791419.935,7
1579791429.935,7
1579791439.935,7
1579791449.935,7
1579791459.935,7
1579791469.939,7
1579791479.935,7
1579791489.935,7
1579791499.935,7
1579791509.935,7
1579791519.935,7
1579791529.935,7
1579791539.935,7
1579791549.935,7
1579791559.935,7
1579791569.935,7
1579791579.935,8
1579791589.935,8
1579791599.935,8
1579791609.935,8
1579791619.935,8
1579791629.935,8
1579791639.935,8
1579791649.939,8
1579791659.935,8
1579791669.935,8
1579791679.935,8
1579791689.935,8
1579791699.935,8
1579791709.935,8
1579791719.935,8
1579791729.935,8
1579791739.935,8
1579791749.935,8
1579791759.935,8
1579791769.935,8
1579791779.935,9
1579791789.935,9
1579791799.935,9
1579791809.935,9
1579791819.935,9
1579791829.935,9
1579791839.935,9
1579791849.935,9
1579791859.935,9
1579791869.935,9
1579791879.935,9
1579791889.935,9
1579791899.935,9
1579791909.935,9
1579791919.939,9
1579791929.939,9
1579791939.935,9
1579791949.935,9
1579791959.935,9
1579791969.935,9
1579791979.935,9
1579791989.935,9
1579791999.935,9
1579792009.935,9
1579792019.935,10
