epoch,value
1580837986.094,0
1580837996.094,0
1580838006.094,0
1580838016.094,0
1580838026.094,0
1580838036.094,0
1580838046.094,0
1580838056.094,0
1580838066.094,0
1580838076.094,0
1580838086.094,0
1580838096.094,0
1580838106.094,1
1580838116.094,1
1580838126.094,1
1580838136.094,1
1580838146.094,1
1580838156.094,1
1580838166.097,1
1580838176.097,1
1580838186.094,1
1580838196.094,1
1580838206.094,1
1580838216.094,1
1580838226.094,1
1580838236.094,2
1580838246.094,2
1580838256.094,2
1580838266.094,2
1580838276.094,2
1580838286.094,2
1580838296.094,2
1580838306.094,2
1580838316.094,2
1580838326.094,2
1580838336.094,2
1580838346.094,2
1580838356.094,2
1580838366.094,2
1580838386.096,3
1580838396.094,3
1580838406.094,3
1580838416.094,3
1580838426.094,3
1580838436.094,3
1580838446.094,3
1580838456.094,3
1580838466.094,3
1580838476.094,3
1580838486.094,3
1580838496.094,3
1580838506.094,3
1580838516.094,3
1580838526.094,3
1580838536.094,3
1580838546.094,3
1580838556.094,3
1580838566.094,3
1580838576.094,3
1580838586.094,3
1580838596.094,3
1580838606.094,3
1580838626.094,3
1580838636.094,4
1580838646.094,4
1580838656.094,4
1580838666.094,4
1580838676.094,4
1580838686.094,4
1580838696.094,4
1580838706.094,4
1580838716.094,4
1580838726.099,4
1580838736.099,4
1580838746.094,4
1580838756.094,4
1580838766.094,5
1580838776.094,5
1580838786.094,5
1580838796.094,5
1580838806.094,5
1580838816.094,5
1580838826.094,5
1580838836.094,5
1580838846.094,5
1580838856.094,5
1580838866.094,5
1580838876.094,5
1580838886.094,5
1580838896.094,5
1580838906.094,5
1580838916.094,6
1580838926.094,6
1580838936.094,6
1580838946.094,6
1580838956.094,6
1580838966.094,6
1580838976.094,6
1580838986.094,6
1580838996.094,6
1580839006.094,6
1580839016.094,6
1580839026.094,6
1580839036.094,6
1580839046.099,6
1580839056.094,6
1580839066.094,7
1580839076.094,7
1580839086.094,7
1580839096.094,7
1580839106.094,7
1580839116.094,7
1580839126.094,7
1580839136.094,7
1580839146.094,7
1580839156.094,7
1580839166.094,7
1580839176.094,7
1580839186.094,7
1580839196.094,7
1580839206.094,7
1580839216.094,7
1580839226.094,7
1580839236.094,7
1580839246.094,7
1580839256.094,7
1580839266.094,7
1580839276.094,8
1580839286.094,8
1580839296.094,8
1580839306.094,8
1580839326.097,8
1580839336.094,8
1580839346.094,8
1580839356.094,8
1580839366.094,8
1580839376.094,8
1580839386.094,8
1580839396.094,8
1580839406.094,9
1580839416.094,9
1580839426.094,9
1580839436.094,9
1580839446.094,9
1580839456.094,9
1580839466.094,9
1580839476.094,9
1580839486.094,9
1580839496.094,9
1580839506.094,9
1580839516.094,9
1580839526.094,9
1580839536.094,9
1580839546.094,9
1580839556.094,9
1580839566.094,9
1580839576.094,10
1580839586.094,10
1580839596.094,10
1580839606.094,10
1580839616.094,10
1580839626.094,10
1580839636.094,10
1580839646.094,10
1580839666.094,10
1580839676.094,10
1580839686.094,10
1580839696.094,10
1580839706.094,10
1580839716.094,10
1580839726.094,11
1580839736.094,11
1580839746.094,11
1580839756.094,11
1580839766.094,11
1580839776.094,11
1580839786.094,11
1580839796.094,11
1580839806.094,11
1580839816.094,11
1580839826.094,11
1580839836.094,11
1580839846.094,12
1580839856.094,12
1580839866.094,12
1580839876.094,12
1580839886.094,12
1580839896.094,12
1580839906.094,12
1580839916.094,12
1580839926.094,12
1580839936.094,12
1580839946.094,12
1580839956.094,12
1580839966.094,12
1580839976.094,12
1580839986.094,12
1580839996.094,12
1580840006.094,12
1580840016.094,12
1580840026.094,12
1580840036.094,12
1580840046.094,12
1580840056.094,12
1580840066.094,12
1580840076.094,13
1580840086.094,13
1580840096.094,13
1580840106.094,13
1580840116.094,13
1580840126.094,13
1580840136.094,13
1580840146.094,13
1580840156.094,13
1580840166.094,13
1580840176.094,13
1580840186.094,13
1580840196.094,13
1580840206.094,13
1580840216.094,13
1580840226.094,13
1580840236.094,13
1580840246.094,13
1580840256.094,13
1580840266.094,13
1580840286.094,13
1580840296.094,13
1580840306.094,13
1580840316.094,13
1580840326.094,14
1580840336.094,14
1580840346.094,14
1580840356.094,14
1580840366.094,14
1580840376.094,14
1580840386.094,14
1580840396.094,14
1580840406.094,14
1580840416.094,14
1580840426.094,14
1580840436.094,14
1580840446.094,14
1580840456.094,14
1580840466.094,14
1580840476.094,14
1580840486.094,14
1580840496.094,15
