epoch,value
1580431501.482,398423
1580431511.463,398425
1580431521.463,398425
1580431531.462,398425
1580431541.462,398426
1580431551.463,398426
1580431561.462,398444
1580431571.463,398490
1580431581.462,398502
1580431591.462,398545
1580431601.462,398587
1580431611.462,398654
1580431621.462,398706
1580431631.462,398745
1580431641.462,398790
1580431651.462,398850
1580431661.463,398898
1580431671.462,398943
1580431681.462,398986
1580431691.462,399022
1580431701.462,399058
1580431711.463,399099
1580431721.462,399148
1580431731.462,399193
1580431741.462,399238
1580431751.462,399286
1580431761.462,399351
1580431771.462,399402
1580431781.463,399441
1580431791.462,399490
1580431801.462,399524
1580431811.462,399564
1580431821.462,399601
1580431831.462,399637
1580431841.462,399680
1580431851.463,399720
1580431861.462,399757
1580431871.462,399801
1580431881.462,399851
1580431891.464,399891
1580431901.462,399934
1580431911.462,399976
1580431921.462,400008
1580431931.463,400041
1580431941.462,400093
1580431951.463,400134
1580431961.463,400169
1580431971.462,400206
1580431981.462,400252
1580431991.462,400293
1580432001.462,400340
1580432011.462,400382
1580432021.463,400425
1580432031.462,400470
1580432041.462,400521
1580432051.462,400569
1580432061.462,400615
1580432071.463,400662
1580432081.463,400704
1580432091.462,400751
1580432101.463,400796
1580432111.463,400831
1580432121.463,400875
1580432131.462,400919
1580432141.462,400959
1580432151.462,401000
1580432161.462,401042
1580432171.464,401108
1580432181.462,401159
1580432191.462,401211
1580432201.462,401268
1580432211.462,401334
1580432221.462,401382
1580432231.462,401437
1580432241.462,401479
1580432251.463,401523
1580432261.462,401578
1580432271.462,401622
1580432281.464,401664
1580432291.462,401726
1580432301.462,401773
1580432311.462,401807
1580432321.463,401842
1580432331.462,401882
1580432341.462,401922
1580432351.462,401960
1580432361.462,402008
1580432371.462,402051
1580432381.462,402098
1580432391.462,402139
1580432401.462,402194
1580432411.465,402229
1580432421.465,402280
1580432431.463,402316
1580432441.463,402360
1580432451.462,402406
1580432461.462,402454
1580432471.463,402507
1580432481.462,402551
1580432491.462,402609
1580432501.462,402652
1580432511.462,402691
1580432521.463,402733
1580432531.462,402786
1580432541.462,402834
1580432551.462,402874
1580432561.464,402922
1580432571.462,402967
1580432581.463,403010
1580432591.462,403051
1580432601.462,403096
1580432611.462,403148
1580432621.462,403188
1580432631.462,403232
1580432641.462,403270
1580432651.464,403313
1580432661.462,403366
1580432671.462,403405
1580432681.462,403440
1580432691.462,403487
1580432701.464,403521
1580432711.464,403556
1580432721.464,403597
1580432731.462,403646
1580432741.464,403676
1580432751.462,403718
1580432761.462,403759
1580432771.462,403795
1580432781.462,403842
1580432791.462,403895
1580432801.462,403936
1580432811.463,403996
1580432821.462,404040
1580432831.462,404091
1580432841.463,404138
1580432851.462,404178
1580432861.462,404216
1580432871.462,404264
1580432881.464,404301
1580432891.462,404342
1580432901.463,404391
1580432911.462,404437
1580432921.463,404480
1580432931.462,404522
1580432941.462,404564
1580432951.462,404602
1580432961.462,404636
1580432971.462,404673
1580432981.462,404706
1580432991.462,404744
1580433001.463,404781
1580433011.462,404823
1580433021.462,404871
1580433031.462,404905
1580433041.462,404941
1580433051.462,404987
1580433061.462,405026
1580433071.464,405060
1580433081.462,405102
1580433091.462,405136
1580433101.462,405183
1580433111.462,405222
1580433121.462,405265
1580433131.463,405312
1580433141.463,405356
1580433151.462,405400
1580433161.463,405437
1580433171.462,405479
1580433181.462,405512
1580433191.462,405555
1580433201.462,405596
1580433211.463,405640
1580433221.463,405683
1580433231.462,405728
1580433241.463,405775
1580433251.462,405827
1580433261.462,405873
1580433271.463,405916
1580433281.463,405959
1580433291.463,405994
1580433301.462,406040
1580433311.462,406080
1580433321.462,406114
1580433331.462,406147
1580433341.462,406189
1580433351.462,406238
1580433361.462,406282
1580433371.462,406333
1580433381.462,406368
1580433391.462,406416
1580433401.463,406465
1580433411.462,406516
1580433421.462,406547
1580433431.462,406584
1580433441.462,406629
1580433451.462,406668
1580433461.464,406703
1580433471.463,406739
1580433481.462,406779
1580433491.462,406817
1580433501.462,406858
1580433511.463,406896
1580433521.463,406941
1580433531.462,406986
1580433541.462,407023
1580433551.462,407062
1580433561.462,407097
1580433571.463,407150
1580433581.462,407186
1580433591.462,407222
1580433601.466,407273
1580433611.465,407312
1580433621.462,407362
1580433631.462,407406
1580433641.462,407441
1580433651.462,407488
1580433661.462,407547
1580433671.465,407590
1580433681.464,407625
1580433691.462,407669
1580433701.462,407713
1580433711.462,407760
1580433721.462,407796
1580433731.462,407846
1580433741.462,407890
1580433751.462,407928
1580433761.462,407976
1580433771.462,408017
1580433781.466,408058
1580433791.462,408107
1580433801.462,408144
1580433811.462,408181
1580433821.462,408225
1580433831.462,408230
1580433841.463,408230
1580433851.462,408232
1580433861.462,408232
1580433871.463,408233
1580433881.462,408234
1580433891.462,408236
1580433901.462,408236
1580433911.462,408237
1580433921.462,408237
1580433931.462,408238
1580433941.462,408238
1580433951.465,408239
1580433961.462,408240
1580433971.462,408241
1580433981.462,408243
1580433991.463,408244
1580434001.462,408245
1580434011.462,408247
1580434021.462,408248
1580434031.463,408248
1580434041.464,408249
1580434051.463,408249
1580434061.462,408250
1580434071.465,408251
1580434081.463,408251
1580434091.462,408251
1580434101.462,408251
1580434111.462,408251
1580434121.462,408252
1580434131.462,408252
1580434141.462,408252
1580434151.465,408252
1580434161.463,408252
1580434171.462,408252
1580434181.462,408252
1580434191.462,408252
1580434201.462,408252
1580434211.463,408252
1580434221.462,408252
1580434231.462,408252
1580434241.462,408252
1580434251.462,408252
1580434261.462,408252
1580434271.462,408254
1580434281.462,408254
1580434291.462,408254
1580434301.462,408254
1580434311.462,408254
1580434321.462,408256
1580434331.462,408256
1580434341.462,408256
1580434351.463,408257
1580434361.462,408258
1580434371.462,408259
1580434381.462,408260
1580434391.462,408261
1580434401.464,408261
1580434411.464,408262
1580434421.462,408263
1580434431.463,408263
1580434441.462,408264
1580434451.463,408265
1580434461.462,408265
1580434471.464,408266
1580434481.464,408266
1580434491.462,408267
1580434501.462,408267
1580434511.462,408268
1580434521.462,408268
1580434531.462,408268
1580434541.462,408268
1580434551.462,408268
1580434561.462,408269
1580434571.465,408269
1580434581.463,408271
1580434591.462,408271
1580434601.462,408272
1580434611.463,408274
1580434621.462,408274
1580434631.462,408274
1580434641.462,408274
1580434651.462,408275
1580434661.462,408275
1580434671.462,408275
1580434681.462,408276
1580434691.462,408278
1580434701.466,408278
1580434711.464,408278
1580434721.463,408278
1580434731.462,408278
1580434741.462,408278
1580434751.462,408279
1580434761.464,408280
1580434771.462,408280
1580434781.462,408281
1580434791.462,408283
1580434801.463,408283
1580434811.462,408284
1580434821.462,408284
1580434831.462,408284
1580434841.462,408284
1580434851.462,408284
1580434861.462,408284
1580434871.464,408284
1580434881.462,408284
1580434891.462,408284
1580434901.463,408284
1580434911.465,408286
1580434921.464,408286
1580434931.462,408287
1580434941.462,408287
1580434951.462,408288
1580434961.462,408290
1580434971.462,408290
1580434981.462,408291
1580434991.462,408293
1580435001.462,408294
1580435011.462,408295
1580435021.463,408295
1580435031.462,408296
1580435041.462,408297
1580435051.462,408298
1580435061.462,408298
1580435071.462,408300
1580435081.462,408300
1580435091.462,408301
1580435101.462,408301
1580435111.462,408302
1580435121.462,408303
1580435131.462,408304
1580435141.463,408304
1580435151.462,408304
1580435161.462,408304
1580435171.462,408305
1580435181.462,408306
1580435191.462,408306
1580435201.462,408306
1580435211.462,408308
1580435221.462,408309
1580435231.462,408309
1580435241.462,408309
1580435251.462,408310
1580435261.462,408311
1580435271.462,408311
1580435281.462,408311
1580435291.462,408312
1580435301.462,408312
1580435311.464,408312
1580435321.462,408313
1580435331.462,408313
1580435341.462,408313
1580435351.462,408313
1580435361.464,408314
1580435371.463,408314
1580435381.462,408315
1580435391.462,408316
1580435401.465,408317
1580435411.462,408318
1580435421.462,408319
1580435431.462,408319
1580435441.462,408319
1580435451.462,408319
1580435461.462,408320
1580435471.462,408320
1580435481.462,408322
1580435491.463,408322
1580435501.462,408322
1580435511.462,408322
1580435521.464,408323
1580435531.466,408323
1580435541.462,408323
1580435551.462,408323
1580435561.462,408324
1580435571.462,408325
1580435581.466,408327
1580435591.462,408327
1580435601.462,408328
1580435611.462,408328
1580435621.464,408329
1580435631.462,408329
1580435641.462,408330
1580435651.462,408330
1580435661.462,408330
1580435671.463,408332
1580435681.462,408332
1580435691.462,408332
1580435701.462,408333
1580435711.462,408334
1580435721.464,408334
1580435731.463,408334
1580435741.462,408336
1580435751.462,408336
1580435761.462,408339
1580435771.463,408339
1580435781.462,408340
1580435791.463,408340
1580435801.462,408340
1580435811.463,408341
1580435821.464,408341
1580435831.462,408341
1580435841.462,408341
1580435851.462,408341
1580435861.462,408342
1580435871.463,408342
1580435881.471,408342
1580435891.462,408343
1580435901.462,408344
1580435911.462,408345
1580435921.463,408345
1580435931.462,408345
1580435941.463,408346
1580435951.462,408346
1580435961.462,408348
1580435971.462,408348
1580435981.462,408349
1580435991.462,408349
1580436001.462,408350
1580436011.462,408350
1580436021.462,408350
1580436031.462,408352
1580436041.462,408352
1580436051.462,408352
1580436061.463,408352
1580436071.462,408352
1580436081.462,408352
1580436091.464,408352
1580436101.462,408352
1580436111.462,408353
1580436121.462,408354
1580436131.462,408354
1580436141.463,408355
1580436151.462,408355
1580436161.462,408355
1580436171.462,408355
1580436181.463,408356
1580436191.462,408356
1580436201.462,408357
1580436211.462,408358
1580436221.462,408360
1580436231.462,408360
1580436241.462,408360
1580436251.463,408362
1580436261.462,408362
1580436271.462,408363
1580436281.463,408363
1580436291.462,408364
1580436301.462,408364
1580436311.462,408364
1580436321.462,408365
1580436331.462,408366
1580436341.463,408367
1580436351.462,408367
1580436361.462,408368
1580436371.462,408368
1580436381.462,408368
1580436391.462,408369
1580436401.462,408370
1580436411.462,408372
1580436421.462,408372
1580436431.462,408373
1580436441.463,408373
1580436451.462,408373
1580436461.462,408373
1580436471.462,408373
1580436481.463,408375
1580436491.462,408376
1580436501.463,408377
1580436511.463,408378
1580436521.462,408379
1580436531.462,408380
1580436541.462,408380
1580436551.462,408380
1580436561.462,408380
1580436571.462,408380
1580436581.462,408381
1580436591.462,408381
1580436601.464,408381
1580436611.463,408382
1580436621.464,408382
1580436631.462,408383
1580436641.464,408384
1580436651.462,408385
1580436661.463,408386
1580436671.463,408386
1580436681.462,408386
1580436691.464,408386
1580436701.462,408387
1580436711.462,408387
1580436721.462,408388
1580436731.464,408389
1580436741.464,408389
1580436751.464,408390
1580436761.462,408391
1580436771.462,408391
1580436781.462,408392
1580436791.462,408393
1580436801.462,408393
1580436811.462,408394
1580436821.462,408395
1580436831.462,408395
1580436841.462,408395
1580436851.464,408395
1580436861.464,408396
1580436871.462,408398
1580436881.462,408398
1580436891.465,408398
1580436901.462,408399
1580436911.464,408400
1580436921.462,408400
1580436931.464,408400
1580436941.462,408400
1580436951.462,408401
1580436961.465,408401
1580436971.463,408402
1580436981.465,408403
1580436991.462,408404
1580437001.462,408404
1580437011.462,408404
1580437021.464,408404
1580437031.462,408404
1580437041.462,408404
1580437051.462,408404
1580437061.464,408404
1580437071.462,408406
1580437081.462,408406
1580437091.462,408408
1580437101.462,408408
1580437111.462,408408
1580437121.462,408408
1580437131.462,408408
1580437141.462,408408
1580437151.463,408408
1580437161.462,408410
1580437171.462,408411
1580437181.462,408412
1580437191.462,408412
1580437201.463,408412
1580437211.464,408412
1580437221.463,408413
1580437231.464,408413
1580437241.462,408413
1580437251.462,408413
1580437261.462,408414
1580437271.462,408415
1580437281.462,408415
1580437291.462,408418
1580437301.462,408418
1580437311.462,408418
1580437321.462,408418
1580437331.462,408418
1580437341.462,408419
1580437351.462,408419
1580437361.462,408419
1580437371.462,408419
1580437381.462,408421
1580437391.462,408422
1580437401.462,408423
1580437411.462,408423
1580437421.462,408424
1580437431.462,408424
1580437441.462,408426
1580437451.464,408426
1580437461.462,408426
1580437471.462,408426
1580437481.462,408426
1580437491.462,408426
1580437501.462,408426
1580437511.462,408428
1580437521.462,408428
1580437531.462,408429
1580437541.462,408430
1580437551.462,408430
1580437561.468,408430
1580437571.462,408430
1580437581.463,408432
1580437591.462,408433
1580437601.463,408434
1580437611.463,408434
1580437621.462,408435
1580437631.462,408435
1580437641.462,408435
1580437651.462,408436
1580437661.462,408437
1580437671.462,408438
1580437681.462,408441
1580437691.462,408442
1580437701.462,408442
1580437711.462,408442
1580437721.462,408444
1580437731.463,408444
1580437741.465,408445
1580437751.462,408446
1580437761.462,408446
1580437771.462,408446
1580437781.462,408448
1580437791.462,408450
1580437801.462,408450
1580437811.462,408450
1580437821.462,408452
1580437831.462,408452
1580437841.462,408452
1580437851.462,408452
1580437861.462,408453
1580437871.462,408453
1580437881.462,408453
1580437891.464,408454
1580437901.462,408456
1580437911.464,408456
1580437921.462,408456
1580437931.462,408457
1580437941.463,408458
1580437951.464,408459
1580437961.463,408460
1580437971.462,408460
1580437981.462,408460
1580437991.462,408460
1580438001.462,408460
1580438011.462,408462
1580438021.462,408462
1580438031.462,408463
1580438041.464,408463
1580438051.462,408464
1580438061.463,408464
1580438071.462,408464
1580438081.462,408464
1580438091.462,408464
1580438101.462,408468
1580438111.462,408469
1580438121.462,408470
1580438131.462,408470
1580438141.462,408470
1580438151.462,408470
1580438161.462,408471
1580438171.463,408471
1580438181.462,408471
1580438191.462,408471
1580438201.462,408472
1580438211.462,408472
1580438221.462,408473
1580438231.462,408474
1580438241.463,408477
1580438251.462,408477
1580438261.462,408478
1580438271.464,408478
1580438281.462,408478
1580438291.463,408480
1580438301.462,408480
1580438311.462,408480
1580438321.462,408480
1580438331.462,408481
1580438341.464,408482
1580438351.462,408482
1580438361.464,408483
1580438371.462,408483
1580438381.462,408483
1580438391.462,408483
1580438401.463,408483
1580438411.462,408484
1580438421.464,408484
1580438431.462,408485
1580438441.463,408485
1580438451.464,408486
1580438461.462,408486
1580438471.462,408486
1580438481.462,408487
1580438491.462,408488
1580438501.462,408488
1580438511.463,408488
1580438521.462,408489
1580438531.462,408490
1580438541.465,408491
1580438551.463,408491
1580438561.462,408492
1580438571.462,408492
1580438581.462,408492
1580438591.462,408493
1580438601.462,408493
1580438611.462,408493
1580438621.462,408494
1580438631.462,408494
1580438641.462,408494
1580438651.462,408494
1580438661.462,408496
1580438671.464,408496
1580438681.462,408497
1580438691.462,408498
1580438701.462,408498
1580438711.462,408499
1580438721.464,408499
1580438731.462,408499
1580438741.463,408499
1580438751.462,408499
1580438761.462,408500
1580438771.462,408501
1580438781.462,408501
1580438791.466,408502
1580438801.463,408503
1580438811.462,408503
1580438821.463,408504
1580438831.462,408505
1580438841.464,408505
1580438851.462,408505
1580438861.462,408506
1580438871.462,408506
1580438881.464,408506
1580438891.463,408506
1580438901.462,408507
1580438911.462,408507
1580438921.463,408508
1580438931.465,408508
1580438941.462,408511
