epoch,value
1579940004.253,0
1579940014.253,0
1579940024.253,0
1579940034.253,0
1579940044.253,0
1579940054.253,0
1579940064.253,0
1579940074.253,0
1579940084.253,0
1579940094.253,0
1579940104.253,0
1579940114.253,0
1579940124.253,0
1579940134.253,0
1579940144.257,0
1579940154.253,0
1579940164.253,0
1579940174.253,0
1579940184.253,0
1579940194.253,0
1579940204.253,0
1579940214.253,0
1579940224.253,0
1579940234.253,0
1579940244.253,0
1579940254.253,0
1579940264.253,0
1579940274.253,0
1579940284.253,0
1579940294.253,0
1579940304.253,0
1579940314.253,0
1579940324.253,0
1579940334.253,0
1579940344.253,0
1579940354.253,0
1579940364.253,0
1579940374.253,0
1579940384.253,0
1579940394.253,0
1579940404.253,0
1579940414.253,0
1579940424.253,0
1579940434.253,0
1579940444.253,0
1579940454.253,0
1579940464.253,0
1579940474.253,0
1579940484.253,0
1579940494.253,0
1579940504.253,0
1579940514.253,0
1579940524.253,0
1579940534.253,0
1579940544.253,0
1579940554.253,0
1579940574.253,0
1579940584.253,0
1579940594.253,0
1579940604.253,0
1579940614.253,0
1579940624.253,0
1579940634.253,0
1579940644.253,0
1579940654.253,0
1579940664.253,0
1579940674.253,0
1579940684.253,0
1579940694.253,0
1579940704.253,0
1579940714.253,0
1579940724.253,0
1579940734.253,0
1579940744.253,0
1579940754.253,0
1579940764.253,0
1579940774.253,0
1579940784.253,0
1579940794.253,0
1579940804.253,0
1579940814.253,0
1579940824.253,0
1579940844.253,0
1579940854.253,0
1579940864.253,0
1579940874.253,0
1579940884.253,0
1579940894.253,0
1579940904.253,0
1579940914.253,0
1579940924.253,0
1579940934.253,0
1579940944.253,0
1579940954.253,0
1579940964.253,0
1579940974.253,0
1579940984.253,0
1579940994.253,0
1579941004.253,0
1579941014.253,0
1579941024.253,0
1579941034.253,0
1579941044.253,0
1579941054.253,0
1579941064.253,0
1579941074.253,0
1579941084.253,0
1579941094.253,0
1579941114.253,0
1579941134.253,0
1579941144.253,0
1579941154.253,0
1579941164.253,0
1579941174.253,0
1579941184.253,0
1579941194.253,0
1579941204.253,0
1579941214.253,0
1579941224.253,1
1579941234.253,1
1579941244.253,1
1579941254.253,1
1579941264.253,1
1579941274.253,1
1579941284.253,1
1579941294.253,1
1579941304.253,1
1579941314.253,1
1579941324.253,1
1579941334.253,1
1579941344.253,1
1579941354.253,1
1579941364.253,1
1579941374.253,1
1579941384.253,1
1579941394.253,1
1579941404.253,1
1579941414.253,1
1579941424.253,1
1579941434.253,1
1579941444.253,1
1579941454.253,1
1579941464.253,1
1579941474.253,1
1579941484.253,1
1579941494.253,1
1579941504.253,1
1579941514.253,1
1579941524.253,1
1579941534.253,1
1579941544.253,1
1579941554.253,1
1579941564.253,1
1579941574.253,1
1579941584.253,1
1579941594.253,1
1579941604.253,1
1579941614.253,1
1579941624.253,1
1579941634.253,1
1579941644.253,1
1579941654.253,1
1579941664.253,1
1579941674.253,1
1579941684.253,1
1579941694.253,1
1579941704.253,1
1579941714.253,1
1579941724.253,1
1579941734.253,1
1579941744.253,1
1579941754.253,1
1579941764.253,1
1579941774.253,1
1579941784.253,1
1579941794.253,1
1579941804.253,1
1579941814.253,1
1579941824.253,1
1579941834.253,1
1579941844.253,1
1579941854.253,1
1579941864.253,1
1579941874.253,1
1579941884.253,1
1579941894.253,1
1579941904.253,1
1579941914.253,1
1579941924.253,1
1579941934.253,1
1579941944.253,1
1579941954.253,1
1579941964.253,1
1579941974.253,1
1579941984.253,1
1579941994.253,1
1579942004.253,1
1579942014.253,1
1579942024.253,1
1579942034.253,1
1579942044.253,1
1579942054.253,1
1579942064.253,1
1579942074.253,1
1579942084.253,1
1579942094.253,1
1579942104.253,1
1579942114.253,1
1579942124.253,1
1579942134.253,1
1579942144.253,1
1579942154.253,1
1579942164.253,1
1579942174.253,1
1579942184.253,1
1579942194.253,1
1579942204.253,1
1579942214.253,1
1579942224.253,1
1579942234.253,1
1579942244.253,1
1579942254.253,1
1579942264.253,1
1579942274.253,1
1579942284.253,1
1579942294.253,1
1579942304.253,1
1579942314.253,1
1579942324.253,1
1579942334.253,1
1579942344.253,1
1579942354.253,1
1579942364.253,1
1579942374.253,1
1579942384.253,1
1579942394.253,1
1579942404.253,1
1579942414.253,1
1579942424.253,1
1579942434.253,1
1579942444.253,1
1579942454.253,1
1579942464.253,1
1579942474.253,1
1579942484.253,1
1579942494.253,1
1579942504.253,1
1579942514.253,1
1579942524.253,1
1579942534.253,1
1579942544.253,1
1579942554.253,1
1579942564.253,1
1579942574.253,1
1579942584.253,1
1579942594.253,1
1579942604.253,1
1579942614.253,2
