epoch,value
1579924276.135,51372
1579924286.113,51374
1579924296.114,51374
1579924306.114,51374
1579924316.113,51374
1579924326.113,51375
1579924336.115,51375
1579924346.113,51375
1579924356.113,51375
1579924366.113,51375
1579924376.113,51375
1579924386.113,51375
1579924396.114,51375
1579924406.113,51376
1579924416.113,51376
1579924426.114,51376
1579924436.114,51376
1579924446.113,51376
1579924456.113,51376
1579924466.113,51376
1579924476.117,51376
1579924486.113,51377
1579924496.113,51377
1579924506.113,51377
1579924516.114,51377
1579924526.114,51379
1579924536.114,51379
1579924546.114,51379
1579924556.114,51379
1579924566.115,51379
1579924576.113,51379
1579924586.113,51379
1579924596.113,51379
1579924606.113,51379
1579924616.114,51379
1579924626.114,51379
1579924636.113,51379
1579924646.115,51382
1579924656.114,51382
1579924666.113,51382
1579924676.114,51382
1579924686.113,51382
1579924696.113,51382
1579924706.113,51382
1579924716.113,51382
1579924726.114,51382
1579924736.113,51382
1579924746.114,51382
1579924756.115,51382
1579924766.113,51382
1579924776.114,51382
1579924786.114,51382
1579924796.113,51382
1579924806.114,51382
1579924816.114,51382
1579924826.114,51382
1579924836.113,51382
1579924846.113,51382
1579924856.114,51382
1579924866.113,51382
1579924876.114,51382
1579924886.114,51382
1579924896.114,51382
1579924906.113,51382
1579924916.113,51382
1579924926.113,51382
1579924936.113,51383
1579924946.113,51383
1579924956.113,51383
1579924966.113,51383
1579924976.113,51383
1579924986.113,51383
1579924996.116,51383
1579925006.114,51383
1579925016.113,51383
1579925026.113,51383
1579925036.113,51383
1579925046.113,51383
1579925056.114,51383
1579925066.113,51383
1579925076.113,51383
1579925086.115,51383
1579925096.114,51383
1579925106.113,51383
1579925116.115,51383
1579925126.114,51383
1579925136.113,51383
1579925146.113,51383
1579925156.114,51383
1579925166.113,51383
1579925176.114,51383
1579925186.113,51383
1579925196.114,51383
1579925206.113,51383
1579925216.114,51383
1579925226.114,51383
1579925236.114,51383
1579925246.113,51383
1579925256.113,51383
1579925266.113,51383
1579925276.113,51383
1579925286.114,51383
1579925296.113,51383
1579925306.114,51383
1579925316.113,51385
1579925326.115,51385
1579925336.113,51385
1579925346.113,51385
1579925356.113,51386
1579925366.114,51386
1579925376.113,51386
1579925386.113,51386
1579925396.113,51386
1579925406.113,51386
1579925416.114,51386
1579925426.113,51386
1579925436.113,51386
1579925446.113,51386
1579925456.114,51386
1579925466.113,51386
1579925476.114,51388
1579925486.113,51388
1579925496.113,51388
1579925506.113,51388
1579925516.113,51388
1579925526.113,51388
1579925536.113,51388
1579925546.114,51388
1579925556.114,51388
1579925566.113,51388
1579925576.113,51388
1579925586.114,51388
1579925596.114,51388
1579925606.113,51388
1579925616.114,51388
1579925626.114,51388
1579925636.113,51388
1579925646.113,51388
1579925656.113,51388
1579925666.113,51389
1579925676.113,51389
1579925686.113,51389
1579925696.113,51390
1579925706.113,51390
1579925716.114,51390
1579925726.113,51392
1579925736.114,51392
1579925746.114,51394
1579925756.113,51394
1579925766.116,51394
1579925776.114,51395
1579925786.114,51397
1579925796.114,51397
1579925806.114,51397
1579925816.114,51397
1579925826.114,51397
1579925836.115,51397
1579925846.114,51397
1579925856.113,51397
1579925866.113,51397
1579925876.114,51397
1579925886.115,51397
1579925896.114,51397
1579925906.113,51397
1579925916.114,51397
1579925926.114,51397
1579925936.115,51397
1579925946.114,51397
1579925956.115,51397
1579925966.113,51397
1579925976.113,51397
1579925986.114,51397
1579925996.114,51397
1579926006.113,51399
1579926016.114,51400
1579926026.113,51400
1579926036.114,51400
1579926046.113,51400
1579926056.113,51400
1579926066.113,51400
1579926076.113,51400
1579926086.113,51400
1579926096.113,51400
1579926106.113,51400
1579926116.114,51400
1579926126.114,51400
1579926136.113,51401
1579926146.114,51401
1579926156.113,51401
1579926166.114,51403
1579926176.113,51403
1579926186.113,51403
1579926196.113,51403
1579926206.115,51403
1579926216.113,51403
1579926226.114,51403
1579926236.113,51404
1579926246.113,51404
1579926256.114,51404
1579926266.113,51404
1579926276.114,51404
1579926286.113,51404
1579926296.113,51404
1579926306.113,51404
1579926316.114,51404
1579926326.113,51404
1579926336.115,51404
1579926346.115,51404
1579926356.114,51404
1579926366.114,51404
1579926376.113,51404
1579926386.115,51404
1579926396.113,51404
1579926406.114,51404
1579926416.113,51404
1579926426.113,51405
1579926436.114,51405
1579926446.113,51405
1579926456.115,51405
1579926466.113,51405
1579926476.114,51405
1579926486.113,51405
1579926496.113,51405
1579926506.113,51405
1579926516.113,51405
1579926526.114,51405
1579926536.113,51405
1579926546.113,51406
1579926556.114,51406
1579926566.113,51406
1579926576.114,51406
1579926586.114,51406
1579926596.113,51406
1579926606.113,51406
1579926616.114,51406
1579926626.113,51406
1579926636.113,51406
1579926646.113,51406
1579926656.113,51406
1579926666.113,51406
1579926676.114,51406
1579926686.113,51407
1579926696.114,51407
1579926706.114,51407
1579926716.117,51407
1579926726.113,51407
1579926736.113,51407
1579926746.116,51407
1579926756.114,51407
1579926766.113,51407
1579926776.113,51407
1579926786.113,51407
1579926796.113,51407
1579926806.114,51407
1579926816.114,51407
1579926826.114,51407
1579926836.113,51407
1579926846.114,51407
1579926856.114,51407
1579926866.114,51407
1579926876.115,51407
1579926886.114,51407
1579926896.116,51408
1579926906.114,51408
1579926916.114,51408
1579926926.113,51408
1579926936.113,51409
1579926946.114,51410
1579926956.115,51410
1579926966.113,51410
1579926976.113,51410
1579926986.113,51410
1579926996.114,51411
1579927006.114,51412
1579927016.113,51412
1579927026.115,51412
1579927036.114,51412
