epoch,value
1580245635.816,0
1580245645.816,0
1580245655.816,0
1580245665.816,0
1580245675.816,0
1580245685.816,0
1580245695.816,0
1580245705.816,0
1580245715.816,0
1580245725.816,0
1580245735.816,1
1580245745.816,2
1580245755.816,4
1580245765.816,5
1580245775.816,15
1580245785.816,16
1580245795.816,18
1580245805.816,22
1580245815.816,25
1580245825.816,27
1580245835.816,30
1580245845.817,35
1580245855.822,35
1580245865.817,37
1580245875.816,42
1580245885.816,43
1580245895.816,43
1580245905.816,43
1580245915.816,43
1580245925.822,43
1580245935.816,44
1580245945.816,44
1580245955.816,54
1580245965.817,54
1580245975.816,54
1580245985.816,54
1580245995.816,54
1580246005.816,54
1580246015.816,54
1580246025.816,54
1580246035.816,54
1580246045.816,54
1580246055.816,54
1580246065.816,55
1580246075.816,55
1580246085.816,55
1580246095.816,55
1580246105.816,55
1580246115.816,55
1580246125.816,55
1580246135.816,55
1580246145.817,55
1580246155.816,55
1580246165.817,55
1580246175.816,55
1580246185.816,55
1580246195.816,55
1580246205.816,55
1580246215.816,55
1580246225.816,55
1580246235.816,55
1580246245.816,55
1580246255.816,55
1580246265.816,55
1580246275.816,55
1580246285.816,55
1580246295.816,55
1580246305.816,55
1580246315.816,55
1580246325.816,55
1580246335.816,55
1580246345.816,55
1580246355.816,55
1580246365.816,55
1580246375.816,55
1580246385.816,55
1580246395.816,55
1580246405.816,56
1580246415.816,56
1580246425.816,56
1580246435.816,56
1580246445.816,56
1580246455.816,56
1580246465.816,56
1580246475.816,56
1580246485.816,56
1580246495.816,56
1580246505.816,56
1580246515.816,56
1580246525.816,56
1580246535.816,56
1580246545.816,56
1580246555.816,56
1580246565.818,56
1580246575.816,56
1580246585.816,56
1580246595.816,56
1580246605.816,56
1580246615.816,56
1580246625.816,56
1580246635.816,56
1580246645.816,56
1580246655.816,56
1580246665.816,56
1580246675.816,56
1580246685.816,56
1580246695.816,56
1580246705.816,56
1580246715.816,56
1580246725.816,57
1580246735.816,57
1580246745.816,57
1580246755.816,57
1580246765.816,57
1580246775.816,57
1580246785.816,57
1580246795.816,57
1580246805.816,57
1580246815.817,57
1580246825.816,57
1580246835.816,57
1580246845.816,57
1580246855.816,57
1580246865.816,57
1580246875.816,57
1580246885.816,57
1580246895.816,57
1580246905.816,57
1580246915.816,57
1580246925.816,57
1580246935.816,57
1580246945.816,57
1580246955.816,57
1580246965.816,57
1580246975.816,57
1580246985.816,57
1580246995.816,57
1580247005.822,57
1580247015.816,57
1580247025.816,58
1580247035.816,58
1580247045.816,58
1580247055.816,58
1580247065.816,58
1580247075.816,58
1580247085.816,58
1580247095.817,59
1580247105.816,59
1580247115.816,59
1580247125.816,59
1580247135.816,59
1580247145.816,59
1580247155.816,59
1580247165.816,59
1580247175.816,59
1580247185.816,59
1580247195.816,59
1580247205.816,59
1580247215.816,59
1580247225.816,60
1580247235.816,60
1580247245.816,60
1580247255.816,60
1580247265.817,60
1580247275.816,60
1580247285.816,60
1580247295.816,60
1580247305.816,60
1580247315.816,60
1580247325.816,60
1580247335.816,60
1580247345.816,60
1580247355.816,60
1580247365.816,60
1580247375.816,60
1580247385.816,60
1580247395.816,60
1580247405.816,60
1580247415.817,60
1580247425.816,60
1580247435.817,60
1580247445.816,60
1580247455.816,60
1580247465.816,60
1580247475.816,60
1580247485.816,60
1580247495.816,60
1580247505.816,60
1580247515.816,60
1580247525.816,60
1580247535.816,60
1580247545.816,60
1580247555.816,60
1580247565.816,61
1580247575.816,61
1580247585.816,61
1580247595.816,61
1580247605.816,61
1580247615.821,61
1580247625.816,61
1580247635.816,61
1580247645.817,61
1580247655.816,61
1580247665.816,61
1580247675.816,61
1580247685.816,61
1580247695.816,61
1580247705.816,61
1580247715.816,61
1580247725.816,61
1580247735.816,61
1580247745.816,61
1580247755.816,61
1580247765.816,61
1580247775.816,61
1580247785.816,61
1580247795.816,61
1580247805.816,62
1580247815.816,62
1580247825.816,62
1580247835.816,62
1580247845.816,62
1580247855.816,62
1580247865.816,62
1580247875.816,62
1580247885.816,62
1580247895.816,62
1580247905.816,62
1580247915.816,62
1580247925.816,62
1580247935.816,62
1580247945.816,62
1580247955.816,62
1580247965.816,63
1580247975.816,63
1580247985.816,63
1580247995.816,63
1580248005.816,63
1580248015.816,63
1580248025.816,63
1580248035.816,63
1580248045.816,63
1580248055.816,63
1580248065.816,63
1580248075.816,64
1580248085.816,64
1580248095.816,64
1580248105.816,64
1580248115.817,64
1580248125.816,64
1580248135.816,64
1580248145.816,64
1580248155.816,64
1580248165.816,64
1580248175.816,64
1580248185.816,65
1580248195.816,65
1580248205.816,65
1580248215.816,65
1580248225.816,65
1580248235.816,65
1580248245.817,65
1580248255.816,65
1580248265.816,65
1580248275.816,65
1580248285.816,65
1580248295.816,65
1580248305.816,65
1580248325.816,65
1580248335.816,65
1580248345.816,66
1580248355.816,66
1580248365.816,66
