epoch,value
1580326837.258,0
1580326847.258,0
1580326857.262,0
1580326867.258,0
1580326877.258,0
1580326887.258,0
1580326897.258,0
1580326907.258,0
1580326917.258,0
1580326927.258,0
1580326937.258,0
1580326947.258,0
1580326957.258,1
1580326967.258,1
1580326977.258,1
1580326987.258,1
1580326997.258,1
1580327007.258,1
1580327017.258,1
1580327027.258,1
1580327037.258,1
1580327047.258,1
1580327057.258,1
1580327067.258,1
1580327077.258,1
1580327087.258,1
1580327097.258,2
1580327107.258,2
1580327117.258,2
1580327127.258,2
1580327137.258,2
1580327147.258,2
1580327157.262,2
1580327167.258,2
1580327177.258,2
1580327187.258,2
1580327197.258,2
1580327207.258,2
1580327217.258,2
1580327227.258,2
1580327237.258,2
1580327247.258,3
1580327257.258,3
1580327267.258,3
1580327277.258,3
1580327287.258,3
1580327297.258,3
1580327307.258,3
1580327317.258,3
1580327327.258,3
1580327337.258,3
1580327347.258,3
1580327357.258,3
1580327367.258,3
1580327377.258,3
1580327387.258,3
1580327397.258,3
1580327407.258,3
1580327417.258,4
1580327427.258,4
1580327437.258,4
1580327447.258,4
1580327457.258,4
1580327467.258,4
1580327477.258,4
1580327487.258,4
1580327497.258,4
1580327507.258,4
1580327517.258,4
1580327527.258,4
1580327537.258,4
1580327547.258,5
1580327557.258,5
1580327567.261,5
1580327577.258,5
1580327587.258,5
1580327597.258,5
1580327607.258,5
1580327617.258,5
1580327627.258,5
1580327637.258,5
1580327647.258,5
1580327657.258,5
1580327667.258,5
1580327677.258,5
1580327687.258,5
1580327697.258,6
1580327707.258,6
1580327717.258,6
1580327727.258,6
1580327737.258,6
1580327747.258,6
1580327757.258,6
1580327767.258,6
1580327777.258,6
1580327787.258,6
1580327797.258,6
1580327807.258,6
1580327817.258,6
1580327827.258,7
1580327837.258,7
1580327847.258,7
1580327857.258,7
1580327867.258,7
1580327877.258,7
1580327887.258,7
1580327897.258,7
1580327907.258,7
1580327917.258,7
1580327927.258,7
1580327937.258,7
1580327947.258,8
1580327957.258,8
1580327967.258,8
1580327977.258,8
1580327987.258,8
1580328007.258,8
1580328017.258,8
1580328027.258,8
1580328037.258,8
1580328047.258,8
1580328057.258,9
1580328067.258,9
1580328077.258,9
1580328087.258,9
1580328097.258,9
1580328107.258,9
1580328117.258,9
1580328127.258,9
1580328137.261,9
1580328147.258,9
1580328157.258,9
1580328167.258,9
1580328177.258,9
1580328187.258,9
1580328197.258,9
1580328207.258,9
1580328217.258,9
1580328227.258,9
1580328237.258,10
1580328247.258,10
1580328257.258,10
1580328267.258,10
1580328277.258,10
1580328287.258,10
1580328297.258,10
1580328307.258,10
1580328317.258,10
1580328337.258,10
1580328347.258,10
1580328357.258,10
1580328367.258,10
1580328377.258,10
1580328387.258,10
1580328397.258,11
1580328407.258,11
1580328417.258,11
1580328427.258,11
1580328437.258,11
1580328447.258,11
1580328457.258,11
1580328467.258,11
1580328477.258,11
1580328487.258,11
1580328497.258,11
1580328507.258,11
1580328517.258,12
1580328527.258,12
1580328537.258,12
1580328547.258,12
1580328557.258,12
1580328567.258,12
1580328577.258,12
1580328587.262,12
1580328597.258,12
1580328607.258,12
1580328617.259,12
1580328627.258,12
1580328637.258,12
1580328647.258,12
1580328657.258,12
1580328667.258,12
1580328677.258,13
1580328687.258,13
1580328697.258,13
1580328707.258,13
1580328717.258,13
1580328727.258,13
1580328737.258,13
1580328747.258,13
1580328757.258,13
1580328767.258,13
1580328777.258,13
1580328787.260,13
1580328797.258,13
1580328807.258,13
1580328817.258,13
1580328827.258,13
1580328837.258,13
1580328847.258,13
1580328857.258,14
1580328867.258,14
1580328877.258,14
1580328887.258,14
1580328897.258,14
1580328907.258,14
1580328917.258,14
1580328927.258,14
1580328937.258,14
1580328947.258,14
1580328957.258,15
1580328967.258,15
1580328977.258,15
1580328987.258,15
1580328997.258,15
1580329007.258,15
1580329017.262,15
1580329027.258,15
1580329037.258,15
1580329047.258,15
1580329057.258,16
1580329067.258,16
1580329077.258,16
1580329087.258,16
1580329097.258,16
1580329107.258,16
1580329117.258,16
1580329127.258,16
1580329137.258,16
1580329147.258,16
1580329157.258,16
1580329167.258,16
1580329177.258,16
1580329187.258,16
1580329197.258,16
1580329207.258,16
1580329217.258,16
1580329227.258,16
1580329237.258,16
1580329247.258,16
1580329257.258,17
1580329267.258,17
1580329277.258,17
1580329287.258,17
1580329297.258,17
1580329307.258,17
1580329317.258,17
1580329327.258,17
1580329337.258,17
1580329347.258,17
1580329357.258,17
1580329367.258,17
1580329377.258,17
1580329387.258,17
1580329397.258,17
1580329407.258,17
1580329417.258,18
1580329427.258,18
1580329437.258,18
1580329447.258,18
1580329457.258,18
1580329467.258,18
1580329477.258,18
1580329487.258,18
1580329497.258,18
1580329507.258,18
1580329517.258,18
1580329527.258,18
1580329537.258,18
1580329547.258,18
1580329557.258,18
1580329567.258,19
1580329577.258,19
1580329587.258,19
1580329597.258,19
1580329607.258,19
1580329617.258,19
1580329627.258,19
1580329637.258,19
1580329647.258,19
1580329657.258,19
1580329667.258,19
1580329677.258,19
1580329687.258,19
1580329697.258,20
1580329707.258,20
1580329717.258,20
1580329727.258,20
1580329737.258,20
1580329747.258,20
1580329757.258,20
1580329767.258,20
1580329777.258,20
1580329787.258,20
1580329797.258,20
1580329807.258,20
1580329817.258,21
1580329827.258,21
1580329837.258,21
1580329847.258,21
1580329857.258,21
1580329867.258,21
1580329877.258,21
1580329887.258,21
1580329897.258,21
1580329907.258,21
1580329917.258,22
1580329927.258,22
1580329937.258,22
1580329947.258,22
1580329957.258,22
1580329967.262,22
1580329977.258,22
1580329987.258,22
1580329997.258,22
1580330007.258,23
1580330017.258,23
1580330027.258,23
1580330037.258,23
1580330047.258,23
1580330057.258,23
1580330067.258,23
1580330077.258,23
1580330087.258,23
1580330097.258,23
1580330107.258,23
1580330117.258,24
1580330127.258,24
1580330137.258,24
1580330147.258,24
1580330157.258,24
1580330167.258,24
1580330177.258,24
1580330187.258,24
1580330197.258,24
1580330207.258,24
1580330217.258,24
1580330227.258,24
1580330237.258,24
1580330247.258,24
1580330257.258,25
1580330267.258,25
1580330277.258,25
1580330287.258,25
1580330297.258,25
1580330307.258,25
1580330317.258,25
1580330327.258,25
1580330337.258,26
1580330347.262,26
1580330357.258,26
1580330367.258,26
1580330377.258,26
1580330387.258,26
1580330397.258,26
1580330407.258,26
1580330417.258,26
1580330427.258,26
1580330437.262,26
1580330447.258,26
1580330457.258,26
1580330467.258,26
1580330477.258,26
1580330487.258,26
1580330497.258,26
1580330507.258,26
1580330517.258,27
1580330527.262,27
1580330537.258,27
1580330547.258,27
1580330557.258,27
1580330567.258,27
1580330577.258,27
1580330587.258,27
1580330597.258,27
1580330607.261,27
1580330617.258,27
1580330627.258,27
1580330637.261,27
1580330647.258,28
1580330657.258,28
1580330667.258,28
1580330677.258,28
1580330687.262,28
1580330697.258,28
1580330707.258,28
1580330717.258,28
1580330727.258,28
1580330737.258,28
1580330747.258,28
1580330757.258,28
1580330767.258,28
1580330777.258,28
1580330787.258,28
1580330797.258,28
1580330807.258,28
1580330817.258,28
1580330827.258,28
1580330837.258,28
1580330847.258,28
1580330857.258,29
1580330867.258,29
1580330877.258,29
1580330887.258,29
1580330897.258,29
1580330907.260,29
1580330917.258,29
1580330927.258,29
1580330937.258,29
1580330947.258,29
1580330957.258,29
1580330967.258,29
1580330977.258,29
1580330987.258,29
1580330997.258,29
1580331007.258,29
1580331017.258,30
1580331027.258,30
1580331037.258,30
1580331047.258,30
1580331057.258,30
1580331067.258,30
1580331077.258,30
1580331087.258,30
1580331097.258,30
1580331107.258,30
1580331117.258,30
1580331127.258,30
1580331137.258,30
1580331147.258,30
1580331157.258,31
1580331167.258,31
1580331177.258,31
1580331187.258,31
1580331197.258,31
1580331207.258,31
1580331217.258,31
1580331227.258,31
1580331237.258,31
1580331247.258,31
1580331257.258,31
1580331267.258,31
1580331277.258,31
1580331287.258,31
1580331297.258,31
1580331307.258,31
1580331317.258,31
1580331327.258,31
1580331337.258,31
1580331347.258,31
1580331357.258,32
1580331367.258,32
1580331377.258,32
1580331387.258,32
1580331397.258,32
1580331407.258,32
1580331417.258,32
1580331427.258,32
1580331437.258,32
1580331447.258,32
1580331457.258,32
1580331467.258,32
1580331477.258,32
1580331487.258,32
1580331497.258,32
1580331507.258,32
1580331517.258,33
1580331527.258,33
1580331537.258,33
1580331547.258,33
1580331557.258,33
1580331567.260,33
1580331577.258,33
1580331587.258,33
1580331597.258,33
1580331607.258,33
1580331617.258,33
1580331627.258,33
1580331637.258,33
1580331647.258,33
1580331657.258,33
1580331667.258,33
1580331677.258,33
1580331687.258,33
1580331697.258,33
1580331707.258,34
1580331717.258,34
1580331727.258,34
1580331737.258,34
1580331747.258,34
1580331757.258,34
1580331767.258,34
1580331777.258,34
1580331787.258,34
1580331797.258,34
1580331807.258,34
1580331817.258,34
1580331827.258,34
1580331837.258,35
1580331847.258,35
1580331857.258,35
1580331867.258,35
1580331877.258,35
1580331887.258,35
1580331897.258,35
1580331907.258,35
1580331917.258,35
1580331927.258,35
1580331937.258,35
1580331947.258,35
1580331957.262,35
1580331967.258,35
1580331977.258,35
1580331987.258,35
1580331997.258,35
1580332007.258,36
1580332017.258,36
1580332027.258,36
1580332037.258,36
1580332047.258,36
1580332057.258,36
1580332067.258,36
1580332077.258,36
1580332087.258,36
1580332097.258,36
1580332107.258,36
1580332117.258,36
1580332127.258,36
1580332137.258,36
1580332147.258,36
1580332157.258,37
1580332167.258,37
1580332177.258,37
1580332187.258,37
1580332197.258,37
1580332207.258,37
1580332217.258,37
1580332227.258,37
1580332237.258,37
1580332247.258,38
1580332257.258,38
1580332267.258,38
1580332277.258,38
1580332287.258,38
1580332297.258,38
1580332307.258,38
1580332317.258,38
1580332327.258,38
1580332337.258,38
1580332347.258,38
1580332357.258,38
1580332367.258,38
1580332377.258,38
1580332387.258,39
1580332397.258,39
1580332407.258,39
1580332417.258,39
1580332427.258,39
1580332437.258,39
1580332447.258,39
1580332457.258,39
1580332467.258,39
1580332477.258,39
1580332487.258,39
1580332497.258,40
1580332507.258,40
1580332517.258,40
1580332527.258,40
1580332537.258,40
1580332547.258,40
1580332557.258,40
1580332567.258,40
1580332577.258,40
1580332587.258,40
1580332597.258,40
1580332607.258,40
1580332617.258,40
1580332627.258,41
1580332637.258,41
1580332647.258,41
1580332657.258,41
1580332667.258,41
1580332677.258,41
1580332687.258,41
1580332697.258,41
1580332707.258,41
1580332717.258,41
1580332727.258,41
1580332737.258,41
1580332747.258,41
1580332757.258,41
1580332767.258,41
1580332777.258,42
1580332787.258,42
1580332797.258,42
1580332807.258,42
1580332817.263,42
1580332827.258,42
1580332837.258,42
1580332847.258,42
1580332857.258,42
1580332867.258,42
1580332877.258,43
1580332887.258,43
1580332897.258,43
1580332907.258,43
1580332917.258,43
1580332927.258,43
1580332937.258,43
1580332947.258,43
1580332957.258,44
1580332967.258,44
1580332977.258,44
1580332987.258,44
1580332997.258,44
1580333007.262,44
1580333017.258,44
1580333027.258,44
1580333037.258,44
1580333047.258,44
1580333057.258,45
1580333067.258,45
1580333077.258,45
1580333087.258,45
1580333097.258,45
1580333107.261,45
1580333117.258,45
1580333127.258,45
1580333137.258,45
1580333147.258,45
1580333157.258,45
1580333167.258,45
1580333177.258,46
1580333187.258,46
1580333197.258,46
1580333207.258,46
1580333217.258,46
1580333227.258,46
1580333237.258,46
1580333247.258,46
1580333257.258,46
1580333267.258,46
1580333277.258,46
1580333287.258,46
1580333297.258,47
1580333307.258,47
1580333317.258,47
1580333327.258,47
1580333337.258,47
1580333347.258,47
1580333357.258,47
1580333367.258,47
1580333377.258,47
1580333387.258,48
1580333397.258,48
1580333407.258,48
1580333417.258,48
1580333427.258,48
1580333437.258,48
1580333447.258,48
1580333457.258,48
1580333467.258,48
1580333477.258,48
1580333487.258,48
1580333497.258,49
1580333507.258,49
1580333517.258,49
1580333527.258,49
1580333537.258,49
1580333547.258,49
1580333557.258,49
1580333567.258,49
1580333577.258,49
1580333587.258,49
1580333597.258,49
1580333607.258,49
1580333617.258,49
1580333627.260,49
1580333637.258,49
1580333647.258,49
1580333657.258,49
1580333667.258,50
1580333677.258,50
1580333687.258,50
1580333697.258,50
1580333707.258,50
1580333717.258,50
1580333727.258,50
1580333737.258,50
1580333747.258,50
1580333757.258,50
1580333767.258,50
1580333777.258,50
1580333787.258,50
1580333797.258,50
1580333807.258,50
1580333817.258,50
1580333827.258,51
1580333837.258,51
1580333847.258,51
1580333857.258,51
1580333867.258,51
1580333877.258,51
1580333887.258,51
1580333897.258,52
1580333907.258,52
1580333917.258,52
1580333927.262,52
1580333937.258,52
1580333947.258,52
1580333957.258,52
1580333967.258,53
1580333977.258,53
1580333987.258,53
1580333997.258,53
1580334007.258,53
1580334017.258,53
1580334027.258,53
1580334037.258,53
1580334047.258,53
1580334057.258,53
1580334067.258,53
1580334077.258,53
1580334087.258,54
1580334097.258,54
1580334107.258,54
1580334117.258,54
1580334127.258,54
1580334137.258,54
1580334147.258,54
1580334157.258,54
1580334167.258,54
1580334177.258,54
1580334187.258,54
1580334197.258,54
1580334207.258,54
1580334217.258,55
1580334227.258,55
1580334237.258,55
1580334247.258,55
1580334257.258,55
1580334267.258,55
1580334277.258,55
1580334287.258,55
1580334297.258,55
1580334307.258,55
1580334317.258,55
1580334327.258,55
1580334337.258,55
1580334347.258,55
1580334357.258,56
1580334367.258,56
