epoch,value
1579799651.418,7970
1579799661.399,7970
1579799671.399,7970
1579799681.399,7970
1579799691.399,7970
1579799701.399,7970
1579799711.400,7970
1579799721.399,7970
1579799731.402,7970
1579799741.399,7970
1579799751.399,7970
1579799761.399,7970
1579799771.399,7970
1579799781.399,7970
1579799791.399,7970
1579799801.399,7970
1579799811.399,7970
1579799821.399,7970
1579799831.399,7970
1579799841.400,7970
1579799851.399,7970
1579799861.400,7970
1579799871.399,7970
1579799881.399,7970
1579799891.399,7970
1579799901.399,7970
1579799911.399,7970
1579799921.399,7970
1579799931.399,7970
1579799941.399,7970
1579799951.399,7970
1579799961.399,7970
1579799971.399,7970
1579799981.400,7970
1579799991.399,7970
1579800001.399,7970
1579800011.399,7970
1579800021.400,7970
1579800031.399,7970
1579800041.399,7970
1579800051.399,7970
1579800061.400,7970
1579800071.399,7970
1579800081.399,7970
1579800091.399,7970
1579800101.400,7970
1579800111.401,7970
1579800121.399,7970
1579800131.399,7970
1579800141.399,7970
1579800151.399,7970
1579800161.399,7970
1579800171.399,7970
1579800181.399,7970
1579800191.399,7970
1579800201.399,7970
1579800211.399,7970
1579800221.399,7970
1579800231.399,7970
1579800241.399,7970
1579800251.399,7970
1579800261.400,7970
1579800271.399,7970
1579800281.399,7970
1579800291.399,7970
1579800301.400,7970
1579800311.400,7970
1579800321.400,7971
1579800331.399,7971
1579800341.400,7971
1579800351.401,7972
1579800361.399,7972
1579800371.399,7972
1579800381.399,7972
1579800391.399,7972
1579800401.399,7972
1579800411.399,7972
1579800421.399,7972
1579800431.399,7972
1579800441.399,7972
1579800451.400,7972
1579800461.399,7972
1579800471.399,7972
1579800481.399,7972
1579800491.399,7972
1579800501.399,7972
1579800511.399,7972
1579800521.399,7972
1579800531.399,7972
1579800541.399,7972
1579800551.402,7972
1579800561.399,7972
1579800571.400,7972
1579800581.399,7972
1579800591.399,7972
1579800601.400,7972
1579800611.399,7972
1579800621.400,7972
1579800631.399,7972
1579800641.399,7972
1579800651.402,7972
1579800661.399,7972
1579800671.399,7972
1579800681.399,7972
1579800691.399,7972
1579800701.399,7972
1579800711.402,7972
1579800721.401,7972
1579800731.399,7972
1579800741.399,7972
1579800751.399,7972
1579800761.399,7972
1579800771.400,7972
1579800781.399,7972
1579800791.400,7972
1579800801.399,7972
1579800811.400,7972
1579800821.399,7972
1579800831.400,7972
1579800841.399,7972
1579800851.399,7972
1579800861.399,7972
1579800871.399,7972
1579800881.399,7972
1579800891.399,7972
1579800901.399,7972
1579800911.399,7972
1579800921.399,7972
1579800931.399,7972
1579800941.400,7972
1579800951.399,7972
1579800961.400,7972
1579800971.399,7972
1579800981.399,7972
1579800991.401,7972
1579801001.399,7972
1579801011.399,7972
1579801021.399,7972
1579801031.399,7972
1579801041.399,7972
1579801051.399,7972
1579801061.399,7972
1579801071.399,7972
1579801081.399,7972
1579801091.399,7972
1579801101.399,7972
1579801111.399,7972
1579801121.400,7972
1579801131.400,7972
1579801141.399,7972
1579801151.400,7972
1579801161.400,7972
1579801171.402,7972
1579801181.399,7972
1579801191.399,7972
1579801201.399,7972
1579801211.399,7972
