epoch,value
1579810562.291,0
1579810572.291,0
1579810582.291,0
1579810592.291,0
1579810602.291,0
1579810612.291,0
1579810622.296,0
1579810632.291,0
1579810642.291,0
1579810652.291,0
1579810662.291,0
1579810682.291,1
1579810692.291,1
1579810702.291,1
1579810712.291,1
1579810722.291,2
1579810732.292,2
1579810742.291,2
1579810752.291,3
1579810762.291,3
1579810772.291,3
1579810782.291,3
1579810792.291,3
1579810802.291,3
1579810812.291,3
1579810822.291,3
1579810842.291,3
1579810852.291,3
1579810862.291,3
1579810872.291,4
1579810882.291,4
1579810892.291,4
1579810902.291,4
1579810912.291,4
1579810922.291,4
1579810932.291,4
1579810942.291,4
1579810952.291,4
1579810962.291,4
1579810972.291,4
1579810982.291,4
1579810992.291,4
1579811002.291,4
1579811012.291,4
1579811022.291,4
1579811032.291,4
1579811042.291,4
1579811052.291,4
1579811062.291,4
1579811072.291,4
1579811082.291,4
1579811092.291,4
1579811102.293,5
1579811112.291,5
1579811122.291,5
1579811132.291,5
1579811142.291,5
1579811152.291,5
1579811162.291,5
1579811172.291,5
1579811182.291,5
1579811192.291,5
1579811202.291,5
1579811212.294,5
1579811222.291,5
1579811232.291,5
1579811242.291,5
1579811252.291,5
1579811262.291,5
1579811272.291,5
1579811282.291,5
1579811292.291,5
1579811302.291,5
1579811312.291,5
1579811322.291,5
1579811332.291,5
1579811342.291,5
1579811352.291,5
1579811362.291,5
1579811372.291,5
1579811382.291,5
1579811392.291,5
1579811402.291,5
1579811412.291,5
1579811422.291,5
1579811432.291,5
1579811442.291,5
1579811452.291,5
1579811462.291,5
1579811472.291,5
1579811482.291,5
1579811492.291,5
1579811502.291,5
1579811512.291,5
1579811522.291,5
1579811532.291,5
1579811542.291,5
1579811552.291,5
1579811562.291,5
1579811572.291,5
1579811582.291,5
1579811592.291,5
1579811602.291,5
1579811612.291,5
1579811622.293,5
1579811632.291,5
1579811642.291,5
1579811652.291,5
1579811662.291,5
1579811672.291,5
1579811682.291,5
1579811692.291,5
1579811702.291,5
1579811712.291,5
1579811722.291,5
1579811732.291,5
1579811742.291,5
1579811752.291,5
1579811762.294,5
1579811772.291,5
1579811782.291,5
1579811792.291,5
1579811802.291,5
1579811812.291,5
1579811822.291,5
1579811832.291,5
1579811842.291,5
1579811852.291,5
1579811862.291,5
1579811872.291,5
1579811882.291,5
1579811892.291,5
1579811902.291,5
1579811912.291,5
1579811922.291,5
1579811932.291,5
1579811942.291,5
1579811952.291,5
1579811962.291,6
1579811972.291,6
1579811982.291,6
1579811992.291,6
1579812002.291,6
1579812012.291,6
1579812022.291,6
1579812032.291,6
1579812042.291,6
1579812052.291,6
1579812062.291,6
1579812072.291,6
1579812082.291,6
