epoch,value
1580229430.913,0
1580229440.913,0
1580229450.913,0
1580229460.913,0
1580229470.913,0
1580229480.913,0
1580229490.913,0
1580229500.913,0
1580229510.913,0
1580229520.913,0
1580229530.913,0
1580229540.913,0
1580229550.913,0
1580229560.913,0
1580229570.913,0
1580229580.913,0
1580229590.913,0
1580229600.913,0
1580229610.913,0
1580229620.913,0
1580229630.913,0
1580229640.913,0
1580229650.913,0
1580229660.913,0
1580229670.913,0
1580229680.913,0
1580229690.913,0
1580229700.913,0
1580229710.913,0
1580229720.913,0
1580229730.913,0
1580229740.913,0
1580229750.913,0
1580229760.913,0
1580229770.918,0
1580229780.913,0
1580229790.913,0
1580229800.913,0
1580229810.913,0
1580229830.913,0
1580229840.913,0
1580229850.913,0
1580229860.913,0
1580229870.913,0
1580229880.913,0
1580229890.913,0
1580229900.913,0
1580229910.913,1
1580229920.913,1
1580229930.913,1
1580229940.913,1
1580229950.913,1
1580229960.913,1
1580229970.913,1
1580229980.913,1
1580229990.913,1
1580230000.913,1
1580230010.913,1
1580230020.913,1
1580230030.913,1
1580230040.913,1
1580230050.913,1
1580230060.913,1
1580230070.913,1
1580230080.913,1
1580230090.913,1
1580230100.913,1
1580230110.913,1
1580230120.913,1
1580230130.913,1
1580230140.913,1
1580230150.913,1
1580230160.913,1
1580230170.913,1
1580230180.913,1
1580230190.913,1
1580230200.913,1
1580230210.913,1
1580230220.913,1
1580230230.913,1
1580230240.913,1
1580230250.913,1
1580230260.913,1
1580230270.913,1
1580230280.913,1
1580230290.913,1
1580230300.913,1
1580230310.913,1
1580230320.913,1
1580230330.913,1
1580230340.913,1
1580230350.913,1
1580230360.913,1
1580230370.913,1
1580230380.913,1
1580230390.913,1
1580230400.913,1
1580230410.913,1
1580230420.913,1
1580230430.913,1
1580230440.913,1
1580230450.913,1
1580230460.913,1
1580230470.913,1
1580230480.913,1
1580230490.913,1
1580230500.913,1
1580230510.913,1
1580230520.913,1
1580230530.913,1
1580230540.913,1
1580230550.913,1
1580230560.913,1
1580230570.913,1
1580230580.913,1
1580230590.913,1
1580230600.913,1
1580230610.913,1
1580230620.913,1
1580230630.913,1
1580230640.913,1
1580230650.913,1
1580230660.913,1
1580230670.913,1
1580230680.913,1
1580230690.913,1
1580230700.913,1
1580230710.913,1
1580230720.913,2
1580230730.913,2
1580230740.913,2
1580230750.913,2
1580230760.913,2
1580230770.913,2
1580230780.913,2
1580230790.913,2
1580230800.913,2
1580230810.913,2
1580230820.913,2
1580230830.913,2
1580230840.913,2
1580230850.913,2
1580230860.913,2
1580230870.913,2
1580230880.913,2
1580230890.913,2
1580230900.913,2
1580230910.913,2
1580230920.913,2
1580230930.913,2
1580230940.913,2
1580230950.913,2
1580230970.913,2
1580230980.913,2
1580230990.913,2
1580231000.913,2
1580231010.913,2
1580231020.913,2
1580231030.913,2
1580231040.913,2
1580231050.913,2
1580231060.913,2
1580231070.913,2
1580231080.913,2
1580231090.913,2
1580231100.913,2
1580231110.913,2
1580231120.913,2
1580231130.913,2
1580231140.913,2
1580231160.913,2
1580231170.913,2
1580231180.913,2
1580231190.913,2
1580231200.913,2
1580231210.913,2
1580231220.913,2
1580231230.913,2
1580231240.913,2
1580231250.913,2
1580231260.913,2
1580231270.913,2
1580231280.913,2
1580231300.913,3
1580231310.913,3
1580231320.913,3
1580231330.913,3
1580231340.913,3
1580231350.913,3
1580231360.913,3
1580231370.913,3
1580231380.913,3
1580231390.913,3
1580231400.913,3
1580231410.913,3
1580231420.913,3
1580231430.913,3
1580231440.913,3
1580231450.913,3
1580231460.913,3
1580231470.913,3
1580231480.913,3
1580231490.913,3
1580231500.913,3
1580231510.913,3
1580231520.913,3
1580231530.913,3
1580231540.913,3
1580231550.913,3
1580231560.913,3
1580231570.913,3
1580231580.913,3
1580231590.913,3
1580231600.913,3
1580231610.913,3
1580231620.913,3
1580231630.913,3
1580231640.913,3
1580231650.913,3
1580231670.913,3
1580231680.913,3
1580231690.913,3
1580231700.913,3
1580231710.913,3
1580231720.913,3
1580231730.913,3
1580231740.913,3
1580231750.913,3
1580231760.913,3
1580231770.913,3
1580231780.913,3
1580231790.913,3
1580231800.913,3
1580231810.913,3
1580231820.913,3
1580231830.913,3
1580231840.913,3
1580231850.913,3
1580231860.913,3
1580231870.913,3
1580231890.913,3
1580231900.913,3
1580231910.913,3
1580231920.913,3
1580231930.913,3
1580231940.913,4
1580231950.913,4
1580231960.913,4
1580231970.913,4
1580231980.913,4
1580231990.913,4
1580232000.913,4
1580232010.913,4
1580232020.913,4
1580232030.913,4
1580232040.913,4
1580232050.913,4
1580232060.913,4
1580232070.913,4
1580232080.913,4
1580232090.913,4
1580232100.913,4
1580232110.913,4
1580232120.913,4
1580232130.913,4
1580232140.913,4
1580232150.913,4
1580232160.913,4
1580232170.913,4
