epoch,value
1580481727.961,0
1580481737.959,0
1580481747.959,0
1580481757.959,0
1580481767.959,0
1580481777.959,0
1580481787.959,0
1580481797.959,0
1580481807.959,0
1580481817.959,0
1580481827.959,0
1580481837.959,0
1580481847.959,0
1580481857.959,0
1580481867.959,0
1580481877.959,0
1580481887.959,0
1580481897.959,0
1580481907.959,0
1580481917.959,0
1580481927.959,0
1580481937.959,0
1580481947.959,0
1580481957.959,0
1580481967.959,0
1580481977.959,0
1580481987.959,0
1580481997.959,0
1580482007.959,0
1580482017.959,0
1580482027.959,0
1580482037.959,0
1580482047.959,0
1580482057.959,0
1580482067.959,0
1580482077.959,0
1580482087.959,0
1580482097.959,0
1580482107.959,0
1580482117.961,0
1580482127.959,0
1580482137.959,0
1580482147.965,0
1580482157.959,0
1580482167.959,0
1580482177.959,0
1580482187.959,0
1580482197.959,0
1580482207.959,0
1580482217.959,0
1580482227.959,0
1580482237.959,0
1580482247.959,0
1580482257.959,0
1580482267.959,0
1580482287.959,0
1580482297.959,0
1580482307.959,0
1580482317.959,0
1580482327.959,0
1580482337.959,1
1580482347.959,1
1580482357.959,1
1580482367.959,1
1580482377.959,1
1580482387.959,1
1580482397.959,1
1580482407.959,1
1580482417.959,1
1580482427.959,1
1580482437.959,1
1580482447.959,1
1580482457.959,1
1580482467.959,1
1580482477.959,1
1580482487.959,1
1580482497.959,1
1580482507.959,1
1580482517.959,1
1580482527.959,1
1580482537.959,1
1580482547.959,1
1580482557.959,1
1580482567.959,1
1580482577.959,1
1580482587.959,1
1580482597.959,1
1580482607.959,1
1580482617.959,1
1580482627.959,1
1580482637.959,1
1580482647.959,1
1580482667.959,1
1580482687.959,1
1580482697.959,1
1580482707.959,1
1580482717.959,1
1580482727.959,1
1580482737.959,1
1580482747.959,1
1580482757.959,1
1580482767.959,1
1580482787.959,1
1580482797.959,1
1580482807.959,1
1580482817.959,1
1580482827.959,2
1580482837.959,2
1580482847.959,2
1580482857.959,2
1580482867.959,2
1580482877.959,2
1580482887.959,2
1580482897.959,2
1580482907.959,2
1580482917.959,2
1580482927.959,2
1580482937.959,2
1580482947.959,2
1580482957.959,2
1580482967.959,2
1580482977.959,2
1580482987.959,2
1580482997.959,2
1580483007.959,2
1580483017.959,2
1580483027.959,2
1580483037.959,2
1580483047.959,2
1580483057.959,2
1580483067.959,2
1580483077.959,2
1580483087.959,2
1580483097.959,2
1580483107.959,2
1580483117.961,2
1580483127.959,2
1580483137.959,2
1580483147.959,2
1580483157.959,2
1580483167.959,2
1580483177.959,2
1580483187.959,2
1580483197.959,2
1580483207.959,2
1580483217.959,3
1580483227.959,3
1580483237.959,3
1580483247.959,3
1580483257.959,3
