epoch,value
1580479963.605,8842
1580479973.583,8842
1580479983.583,8842
1580479993.582,8842
1580480003.582,8842
1580480013.583,8842
1580480023.583,8842
1580480033.582,8842
1580480043.584,8842
1580480053.582,8842
1580480063.582,8842
1580480073.583,8842
1580480083.582,8842
1580480093.583,8842
1580480103.587,8842
1580480113.585,8842
1580480123.582,8842
1580480133.583,8842
1580480143.582,8842
1580480153.583,8842
1580480163.582,8842
1580480173.583,8842
1580480183.582,8842
1580480193.582,8842
1580480203.583,8844
1580480213.583,8844
1580480223.582,8844
1580480233.582,8844
1580480243.582,8845
1580480253.582,8845
1580480263.585,8845
1580480273.582,8845
1580480283.583,8845
1580480293.582,8845
1580480303.583,8845
1580480313.583,8845
1580480323.582,8845
1580480333.583,8845
1580480343.582,8845
1580480353.582,8845
1580480363.582,8845
1580480373.582,8845
1580480383.582,8845
1580480393.582,8845
1580480403.582,8845
1580480413.582,8845
1580480423.582,8845
1580480433.583,8845
1580480443.582,8845
1580480453.582,8845
1580480463.582,8845
1580480473.582,8845
1580480483.582,8845
1580480493.582,8845
1580480503.582,8845
1580480513.583,8845
1580480523.584,8845
1580480533.582,8845
1580480543.582,8845
1580480553.583,8845
1580480563.582,8845
1580480573.583,8845
1580480583.583,8845
1580480593.583,8845
1580480603.585,8845
1580480613.583,8845
1580480623.584,8845
1580480633.582,8845
1580480643.583,8845
1580480653.582,8845
1580480663.582,8845
1580480673.585,8845
1580480683.582,8845
1580480693.583,8845
1580480703.583,8845
1580480713.583,8845
1580480723.582,8845
1580480733.582,8845
1580480743.583,8845
1580480753.583,8845
1580480763.582,8845
1580480773.582,8845
1580480783.582,8845
1580480793.582,8845
1580480803.582,8845
1580480813.582,8846
1580480823.582,8847
1580480833.582,8847
1580480843.583,8847
1580480853.584,8847
1580480863.582,8847
1580480873.582,8847
1580480883.583,8847
1580480893.582,8847
1580480903.582,8847
1580480913.582,8847
1580480923.582,8847
1580480933.582,8847
1580480943.582,8847
1580480953.582,8847
1580480963.582,8847
1580480973.582,8847
1580480983.582,8847
1580480993.584,8847
1580481003.582,8847
1580481013.582,8847
1580481023.582,8847
1580481033.582,8847
1580481043.583,8847
1580481053.582,8847
1580481063.582,8847
1580481073.582,8847
1580481083.583,8847
1580481093.582,8847
1580481103.582,8847
1580481113.583,8847
1580481123.583,8847
1580481133.582,8847
1580481143.582,8847
1580481153.583,8847
1580481163.583,8847
1580481173.582,8847
1580481183.583,8847
1580481193.582,8847
1580481203.583,8847
1580481213.583,8847
1580481223.582,8847
1580481233.583,8847
1580481243.583,8847
1580481253.582,8847
1580481263.582,8847
1580481273.582,8847
1580481283.584,8847
1580481293.583,8847
1580481303.582,8847
1580481313.583,8847
1580481323.582,8847
1580481333.582,8847
1580481343.582,8847
1580481353.582,8847
1580481363.582,8847
1580481373.582,8847
1580481383.582,8847
1580481393.582,8847
1580481403.582,8847
1580481413.582,8847
1580481423.582,8847
1580481433.583,8847
1580481443.583,8847
1580481453.582,8847
1580481463.582,8847
1580481473.583,8847
1580481483.583,8847
1580481493.582,8847
1580481503.582,8847
1580481513.585,8847
1580481523.582,8847
