epoch,value
1580471062.468,55087
1580471072.451,55087
1580471082.452,55087
1580471092.451,55087
1580471102.451,55087
1580471112.452,55087
1580471122.451,55087
1580471132.451,55087
1580471142.452,55087
1580471152.451,55087
1580471162.452,55087
1580471172.451,55087
1580471182.451,55087
1580471192.451,55087
1580471202.451,55087
1580471212.451,55087
1580471222.451,55087
1580471232.452,55087
1580471242.451,55087
1580471252.451,55087
1580471262.451,55087
1580471272.456,55087
1580471282.451,55087
1580471292.452,55087
1580471302.451,55087
1580471312.451,55087
1580471322.452,55087
1580471332.452,55087
1580471342.452,55087
1580471352.452,55087
1580471362.451,55087
1580471372.451,55089
1580471382.451,55091
1580471392.451,55091
1580471402.452,55092
1580471412.452,55092
1580471422.451,55092
1580471432.451,55092
1580471442.451,55092
1580471452.451,55092
1580471462.451,55092
1580471472.452,55092
1580471482.451,55092
1580471492.451,55092
1580471502.451,55092
1580471512.451,55092
1580471522.451,55092
1580471532.451,55092
1580471542.451,55092
1580471552.451,55092
1580471562.451,55092
1580471572.452,55092
1580471582.452,55092
1580471592.451,55093
1580471602.451,55093
1580471612.451,55094
1580471622.451,55094
1580471632.451,55094
1580471642.453,55094
1580471652.451,55094
1580471662.451,55094
1580471672.452,55094
1580471682.451,55094
1580471692.452,55094
1580471702.451,55094
1580471712.451,55094
1580471722.451,55095
1580471732.451,55096
1580471742.451,55096
1580471752.452,55096
1580471762.451,55096
1580471772.451,55096
1580471782.451,55096
1580471792.451,55096
1580471802.451,55096
1580471812.451,55096
1580471822.451,55096
1580471832.451,55096
1580471842.451,55096
1580471852.452,55096
1580471862.451,55096
1580471872.451,55096
1580471882.451,55096
1580471892.451,55096
1580471902.451,55096
1580471912.451,55098
1580471922.451,55098
1580471932.451,55098
1580471942.451,55099
1580471952.453,55100
1580471962.452,55100
1580471972.451,55102
1580471982.451,55103
1580471992.452,55103
1580472002.451,55103
1580472012.452,55103
1580472022.451,55103
1580472032.451,55103
1580472042.451,55103
1580472052.452,55103
1580472062.451,55104
1580472072.451,55104
1580472082.451,55104
1580472092.451,55104
1580472102.452,55104
1580472112.451,55105
1580472122.452,55106
1580472132.451,55106
1580472142.454,55106
1580472152.451,55108
1580472162.451,55108
1580472172.451,55108
1580472182.451,55109
1580472192.451,55109
1580472202.451,55109
1580472212.452,55111
1580472222.451,55112
1580472232.453,55112
1580472242.451,55113
1580472252.451,55114
1580472262.453,55114
1580472272.452,55114
1580472282.451,55114
1580472292.451,55114
1580472302.451,55114
1580472312.451,55114
1580472322.451,55114
1580472332.451,55114
1580472342.451,55114
1580472352.452,55114
1580472362.451,55114
1580472372.451,55114
1580472382.451,55115
1580472392.453,55116
1580472402.451,55116
1580472412.452,55116
1580472422.451,55116
1580472432.451,55116
1580472442.453,55116
1580472452.451,55116
1580472462.451,55116
1580472472.454,55116
1580472482.451,55116
1580472492.451,55116
1580472502.451,55116
1580472512.451,55117
1580472522.451,55117
1580472532.451,55117
1580472542.451,55117
1580472552.451,55117
1580472562.451,55117
1580472572.451,55117
1580472582.451,55117
1580472592.451,55117
1580472602.451,55118
1580472612.451,55118
1580472622.451,55118
