epoch,value
1580335303.250,40600
1580335313.233,40600
1580335323.233,40600
1580335333.234,40600
1580335343.232,40600
1580335353.232,40600
1580335363.233,40600
1580335373.233,40600
1580335383.234,40600
1580335393.233,40600
1580335403.232,40600
1580335413.233,40601
1580335423.233,40601
1580335433.233,40601
1580335443.232,40601
1580335453.232,40601
1580335463.233,40601
1580335473.233,40602
1580335483.236,40602
1580335493.233,40602
1580335503.233,40602
1580335513.233,40602
1580335523.232,40602
1580335533.235,40602
1580335543.232,40602
1580335553.233,40603
1580335563.232,40603
1580335573.232,40603
1580335583.232,40603
1580335593.235,40604
1580335603.232,40604
1580335613.232,40604
1580335623.233,40604
1580335633.232,40604
1580335643.233,40606
1580335653.232,40606
1580335663.233,40606
1580335673.233,40606
1580335683.232,40606
1580335693.233,40606
1580335703.235,40607
1580335713.232,40607
1580335723.232,40607
1580335733.232,40607
1580335743.235,40607
1580335753.232,40607
1580335763.232,40607
1580335773.233,40607
1580335783.233,40607
1580335793.235,40607
1580335803.232,40607
1580335813.232,40607
1580335823.232,40607
1580335833.235,40607
1580335843.232,40607
1580335853.232,40607
1580335863.233,40607
1580335873.234,40607
1580335883.232,40607
1580335893.232,40607
1580335903.232,40607
1580335913.232,40607
1580335923.232,40607
1580335933.233,40607
1580335943.233,40607
1580335953.232,40607
1580335963.232,40607
1580335973.232,40607
1580335983.232,40607
1580335993.232,40607
1580336003.233,40607
1580336013.233,40607
1580336023.232,40607
1580336033.232,40607
1580336043.232,40607
1580336053.232,40607
1580336063.232,40607
1580336073.232,40607
1580336083.236,40608
1580336093.236,40608
1580336103.232,40608
1580336113.232,40608
1580336123.232,40608
1580336133.232,40608
1580336143.232,40608
1580336153.233,40608
1580336163.233,40608
1580336173.233,40608
1580336183.232,40608
1580336193.233,40608
1580336203.233,40608
1580336213.232,40608
1580336223.232,40608
1580336233.232,40608
1580336243.233,40608
1580336253.232,40608
1580336263.232,40608
1580336273.233,40608
1580336283.234,40608
1580336293.234,40608
1580336303.233,40608
1580336313.232,40608
1580336323.233,40608
1580336333.232,40609
1580336343.233,40609
1580336353.233,40609
1580336363.232,40609
1580336373.234,40609
1580336383.232,40609
1580336393.233,40609
1580336403.234,40609
1580336413.234,40609
1580336423.232,40609
1580336433.232,40609
1580336443.232,40609
1580336453.232,40609
1580336463.232,40609
1580336473.232,40610
1580336483.232,40610
1580336493.232,40610
1580336503.232,40611
1580336513.232,40612
1580336523.233,40612
1580336533.232,40612
1580336543.233,40612
1580336553.235,40612
1580336563.232,40612
1580336573.233,40612
1580336583.233,40612
1580336593.232,40612
1580336603.232,40612
1580336613.232,40612
1580336623.232,40612
1580336633.232,40612
1580336643.232,40612
1580336653.232,40612
1580336663.232,40612
1580336673.232,40612
1580336683.233,40612
1580336693.234,40612
1580336703.232,40612
1580336713.234,40612
1580336723.232,40612
1580336733.233,40612
1580336743.233,40612
1580336753.233,40612
1580336763.235,40612
1580336773.232,40612
1580336783.233,40612
1580336793.236,40612
1580336803.234,40612
1580336813.236,40612
1580336823.232,40612
1580336833.232,40612
1580336843.234,40613
1580336853.232,40613
1580336863.232,40613
1580336873.232,40613
1580336883.232,40613
1580336893.232,40613
1580336903.232,40613
1580336913.232,40613
1580336923.232,40613
1580336933.233,40613
1580336943.232,40613
1580336953.232,40613
1580336963.232,40614
1580336973.232,40614
1580336983.233,40614
1580336993.232,40614
1580337003.232,40614
1580337013.233,40614
1580337023.232,40614
1580337033.234,40614
1580337043.233,40614
1580337053.232,40614
1580337063.232,40614
1580337073.233,40614
1580337083.233,40614
1580337093.232,40614
1580337103.232,40614
1580337113.234,40614
1580337123.232,40614
1580337133.232,40614
1580337143.232,40614
1580337153.232,40614
1580337163.233,40614
1580337173.232,40614
1580337183.232,40614
1580337193.233,40614
1580337203.232,40614
1580337213.232,40614
1580337223.233,40614
1580337233.236,40614
1580337243.235,40614
1580337253.232,40614
1580337263.233,40614
1580337273.232,40614
1580337283.232,40614
1580337293.233,40614
1580337303.232,40615
1580337313.233,40615
1580337323.233,40615
1580337333.233,40615
1580337343.234,40615
1580337353.232,40615
1580337363.232,40615
1580337373.233,40615
1580337383.234,40615
1580337393.233,40615
1580337403.232,40615
1580337413.232,40615
1580337423.233,40615
1580337433.232,40615
1580337443.233,40615
1580337453.232,40615
1580337463.233,40615
1580337473.233,40615
1580337483.232,40615
1580337493.232,40615
1580337503.233,40615
1580337513.232,40615
1580337523.234,40615
1580337533.234,40615
1580337543.234,40615
1580337553.232,40615
1580337563.235,40615
1580337573.233,40615
1580337583.234,40615
1580337593.235,40616
1580337603.232,40616
1580337613.233,40616
1580337623.233,40616
1580337633.233,40617
1580337643.234,40617
1580337653.232,40617
1580337663.232,40617
1580337673.232,40617
1580337683.232,40618
1580337693.233,40618
1580337703.232,40618
1580337713.232,40618
1580337723.232,40618
1580337733.233,40618
1580337743.232,40618
1580337753.233,40618
1580337763.233,40618
1580337773.232,40618
1580337783.233,40618
1580337793.233,40618
1580337803.232,40618
1580337813.232,40618
1580337823.233,40618
1580337833.232,40618
1580337843.233,40618
1580337853.232,40618
1580337863.232,40618
1580337873.233,40618
1580337883.233,40618
1580337893.232,40620
1580337903.232,40620
1580337913.233,40620
1580337923.232,40620
1580337933.232,40620
1580337943.232,40620
1580337953.232,40620
1580337963.233,40620
1580337973.232,40620
1580337983.233,40620
1580337993.232,40620
1580338003.232,40620
1580338013.233,40620
1580338023.233,40620
1580338033.232,40620
1580338043.233,40620
1580338053.233,40620
1580338063.236,40622
1580338073.234,40622
1580338083.233,40623
1580338093.232,40623
1580338103.232,40623
1580338113.232,40623
1580338123.232,40623
1580338133.232,40623
1580338143.232,40623
1580338153.232,40623
1580338163.235,40624
1580338173.233,40625
1580338183.233,40626
1580338193.232,40626
1580338203.233,40626
1580338213.232,40626
1580338223.233,40626
1580338233.232,40626
1580338243.233,40626
1580338253.233,40626
1580338263.232,40626
1580338273.234,40626
1580338283.233,40627
1580338293.232,40627
1580338303.232,40627
1580338313.235,40627
1580338323.232,40628
1580338333.233,40628
1580338343.232,40628
1580338353.233,40629
1580338363.233,40630
1580338373.232,40630
1580338383.234,40630
1580338393.233,40632
1580338403.233,40632
1580338413.234,40632
1580338423.234,40632
1580338433.232,40632
1580338443.233,40632
1580338453.233,40632
1580338463.232,40632
1580338473.232,40632
1580338483.232,40632
1580338493.233,40632
1580338503.233,40633
1580338513.232,40634
1580338523.232,40634
1580338533.233,40634
1580338543.233,40634
1580338553.232,40635
1580338563.234,40635
1580338573.233,40636
1580338583.233,40636
1580338593.234,40636
1580338603.233,40636
1580338613.232,40636
1580338623.233,40636
1580338633.232,40636
1580338643.233,40636
1580338653.232,40636
1580338663.232,40636
1580338673.233,40636
1580338683.232,40636
1580338693.233,40636
1580338703.232,40636
1580338713.232,40636
1580338723.232,40636
1580338733.232,40636
1580338743.232,40636
1580338753.233,40636
1580338763.232,40636
1580338773.233,40637
1580338783.233,40638
1580338793.234,40638
