epoch,value
1580753862.781,0
1580753872.781,0
1580753882.781,0
1580753892.782,6
1580753902.782,26
1580753912.781,31
1580753922.781,32
1580753932.781,32
1580753942.781,36
1580753952.781,37
1580753962.781,38
1580753972.781,39
1580753982.781,41
1580753992.789,47
1580754002.781,50
1580754012.781,51
1580754022.785,67
1580754032.781,72
1580754042.781,77
1580754052.781,77
1580754062.781,77
1580754072.781,81
1580754082.781,82
1580754092.781,83
1580754102.781,84
1580754112.781,92
1580754122.781,95
1580754132.781,97
1580754142.781,106
1580754152.781,106
1580754162.781,107
1580754172.781,108
1580754182.781,109
1580754192.781,109
1580754202.782,110
1580754212.781,110
1580754222.781,111
1580754232.781,111
1580754242.781,111
1580754252.781,111
1580754262.781,111
1580754272.781,111
1580754282.781,112
1580754292.781,112
1580754302.783,112
1580754312.781,112
1580754322.781,112
1580754332.781,112
1580754342.781,112
1580754352.781,112
1580754362.781,112
1580754372.781,112
1580754382.781,112
1580754392.781,112
1580754402.781,112
1580754412.781,112
1580754422.781,112
1580754432.781,112
1580754442.781,113
1580754452.781,113
1580754462.781,113
1580754472.781,113
1580754482.781,113
1580754492.781,113
1580754502.781,113
1580754512.781,113
1580754522.781,113
1580754532.781,113
1580754542.781,113
1580754552.781,113
1580754562.781,113
1580754572.781,114
1580754582.781,114
1580754592.781,114
1580754602.781,114
1580754612.781,114
1580754622.781,114
1580754632.781,114
1580754642.781,114
1580754652.781,114
1580754662.781,114
1580754672.781,114
1580754682.781,114
1580754692.781,114
1580754702.781,114
1580754712.781,114
1580754722.781,114
1580754732.781,114
1580754742.781,114
1580754752.781,114
1580754762.781,114
1580754772.781,114
1580754782.781,114
1580754792.781,114
1580754802.781,114
1580754812.781,114
1580754822.781,114
1580754832.781,114
1580754842.781,115
1580754852.781,115
1580754862.781,115
1580754872.781,115
1580754882.781,115
1580754892.781,115
1580754902.781,115
1580754912.781,115
1580754922.781,115
1580754932.781,115
1580754942.781,115
1580754952.781,115
1580754962.781,115
1580754972.781,115
1580754982.781,115
1580754992.781,115
1580755002.781,115
1580755012.781,115
1580755022.781,115
1580755032.781,115
1580755042.781,115
1580755052.781,115
1580755062.781,115
1580755072.781,115
1580755082.781,115
1580755092.781,116
