epoch,value
1579788687.680,7955
1579788697.658,7955
1579788707.655,7955
1579788717.655,7955
1579788727.656,7955
1579788737.655,7955
1579788747.656,7955
1579788757.655,7955
1579788767.655,7955
1579788777.655,7955
1579788787.656,7955
1579788797.655,7955
1579788807.655,7955
1579788817.656,7955
1579788827.657,7955
1579788837.655,7955
1579788847.655,7955
1579788857.655,7955
1579788867.656,7955
1579788877.655,7955
1579788887.655,7955
1579788897.656,7955
1579788907.656,7955
1579788917.655,7955
1579788927.657,7955
1579788937.655,7955
1579788947.657,7955
1579788957.655,7955
1579788967.656,7955
1579788977.655,7955
1579788987.655,7955
1579788997.655,7955
1579789007.656,7955
1579789017.655,7955
1579789027.655,7955
1579789037.655,7955
1579789047.655,7955
1579789057.655,7955
1579789067.656,7955
1579789077.656,7955
1579789087.657,7955
1579789097.655,7955
1579789107.655,7955
1579789117.655,7955
1579789127.655,7955
1579789137.655,7955
1579789147.656,7955
1579789157.655,7955
1579789167.657,7955
1579789177.655,7955
1579789187.656,7955
1579789197.655,7955
1579789207.656,7955
1579789217.657,7955
1579789227.655,7955
1579789237.656,7955
1579789247.657,7955
1579789257.655,7955
1579789267.655,7955
1579789277.655,7955
1579789287.655,7955
1579789297.657,7955
1579789307.656,7955
1579789317.656,7955
1579789327.655,7955
1579789337.658,7955
1579789347.655,7955
1579789357.656,7955
1579789367.656,7955
1579789377.655,7955
1579789387.656,7955
1579789397.655,7955
1579789407.657,7955
1579789417.655,7955
1579789427.655,7955
1579789437.657,7955
1579789447.658,7955
1579789457.656,7955
1579789467.655,7955
1579789477.655,7955
1579789487.655,7955
1579789497.655,7955
1579789507.655,7955
1579789517.655,7955
1579789527.657,7955
1579789537.655,7955
1579789547.657,7955
1579789557.656,7955
1579789567.655,7955
1579789577.656,7955
1579789587.656,7955
1579789597.655,7955
1579789607.655,7955
1579789617.658,7955
1579789627.655,7955
1579789637.657,7955
1579789647.655,7955
1579789657.655,7955
1579789667.655,7955
1579789677.655,7955
1579789687.655,7955
1579789697.656,7955
1579789707.656,7955
1579789717.656,7955
1579789727.656,7955
1579789737.655,7955
1579789747.655,7955
1579789757.655,7955
1579789767.655,7955
1579789777.656,7955
1579789787.658,7955
1579789797.655,7955
1579789807.655,7955
1579789817.655,7955
1579789827.656,7955
1579789837.655,7955
1579789847.655,7955
1579789857.656,7955
1579789867.655,7955
1579789877.656,7955
1579789887.655,7955
1579789897.655,7955
1579789907.656,7955
1579789917.656,7955
1579789927.655,7955
1579789937.657,7955
1579789947.656,7955
1579789957.656,7955
1579789967.655,7955
1579789977.657,7955
1579789987.657,7955
1579789997.656,7955
1579790007.655,7955
1579790017.655,7955
1579790027.656,7955
1579790037.655,7955
1579790047.656,7955
1579790057.656,7955
1579790067.656,7955
1579790077.656,7955
1579790087.657,7955
1579790097.655,7955
1579790107.657,7955
1579790117.657,7955
1579790127.657,7955
1579790137.655,7955
1579790147.656,7955
1579790157.656,7955
1579790167.655,7955
1579790177.655,7955
1579790187.655,7955
1579790197.657,7955
1579790207.655,7955
1579790217.656,7955
1579790227.655,7955
1579790237.656,7955
1579790247.656,7955
