epoch,value
1579799681.106,0
1579799691.106,0
1579799701.106,0
1579799711.106,0
1579799721.106,0
1579799731.106,0
1579799741.106,0
1579799751.106,0
1579799761.106,0
1579799771.106,0
1579799781.106,0
1579799791.106,0
1579799801.106,0
1579799811.106,0
1579799821.106,0
1579799831.106,0
1579799841.106,0
1579799851.106,1
1579799861.106,1
1579799871.106,1
1579799881.106,1
1579799891.106,1
1579799901.106,1
1579799911.106,1
1579799921.106,1
1579799931.106,1
1579799941.106,1
1579799951.106,1
1579799961.106,2
1579799971.106,2
1579799981.106,2
1579799991.106,2
1579800001.106,2
1579800011.106,2
1579800021.106,2
1579800031.106,2
1579800041.106,2
1579800051.106,2
1579800061.106,2
1579800071.106,2
1579800081.106,2
1579800091.106,2
1579800101.106,2
1579800111.106,2
1579800121.106,2
1579800131.106,2
1579800141.106,2
1579800151.106,2
1579800161.106,2
1579800171.106,2
1579800181.106,2
1579800201.106,2
1579800211.106,2
1579800221.106,2
1579800231.106,2
1579800241.106,3
1579800251.106,3
1579800261.106,3
1579800271.106,3
1579800281.106,3
1579800291.106,3
1579800301.106,3
1579800311.106,3
1579800321.106,3
1579800331.106,3
1579800341.106,3
1579800351.106,3
1579800361.106,3
1579800371.106,3
1579800381.106,3
1579800391.110,3
1579800401.106,3
1579800411.106,3
1579800421.110,3
1579800431.106,3
1579800441.106,3
1579800451.106,3
1579800461.106,3
1579800471.106,3
1579800481.106,3
1579800491.106,3
1579800501.106,3
1579800511.106,3
1579800521.106,4
1579800531.106,4
1579800541.110,4
1579800551.106,4
1579800561.106,4
1579800571.106,4
1579800581.106,4
1579800591.106,4
1579800601.106,4
1579800611.106,4
1579800621.106,4
1579800631.106,4
1579800641.106,4
1579800651.106,4
1579800661.106,4
1579800671.106,4
1579800681.106,4
1579800691.106,4
1579800701.106,4
1579800711.106,4
1579800721.106,4
1579800731.106,4
1579800741.106,4
1579800751.106,4
1579800761.106,4
1579800771.106,4
1579800781.106,4
1579800791.106,4
1579800801.106,4
1579800811.106,4
1579800821.106,5
1579800831.106,5
1579800841.106,5
1579800851.106,5
1579800861.106,5
1579800871.106,5
1579800881.106,5
1579800891.106,5
1579800901.106,5
1579800911.106,5
1579800921.106,5
1579800931.106,5
1579800941.106,5
1579800951.106,5
1579800961.106,5
1579800971.106,5
1579800981.106,5
1579800991.106,5
1579801001.106,5
1579801011.106,5
1579801021.106,5
1579801031.106,5
1579801041.106,5
1579801051.106,5
1579801061.106,5
1579801071.106,5
1579801081.106,5
1579801091.106,6
1579801101.106,6
1579801111.106,6
1579801121.106,6
1579801131.106,6
1579801141.106,6
1579801151.106,6
1579801161.106,6
1579801171.106,6
1579801181.110,6
1579801191.106,6
1579801201.106,6
1579801211.106,6
