epoch,value
1580245606.113,318921
1580245616.094,318922
1580245626.094,318923
1580245636.094,318924
1580245646.094,318926
1580245656.094,318926
1580245666.094,318940
1580245676.094,318972
1580245686.094,318988
1580245696.095,319009
1580245706.094,319040
1580245716.094,319083
1580245726.094,319122
1580245736.096,319169
1580245746.094,319209
1580245756.094,319259
1580245766.100,319296
1580245776.094,319332
1580245786.096,319377
1580245796.094,319410
1580245806.094,319458
1580245816.094,319493
1580245826.094,319529
1580245836.094,319572
1580245846.094,319606
1580245856.094,319646
1580245866.094,319687
1580245876.094,319720
1580245886.094,319748
1580245896.094,319779
1580245906.094,319826
1580245916.094,319860
1580245926.095,319894
1580245936.094,319943
1580245946.094,319978
1580245956.094,320032
1580245966.094,320082
1580245976.095,320130
1580245986.094,320171
1580245996.094,320218
1580246006.094,320253
1580246016.096,320299
1580246026.097,320336
1580246036.094,320367
1580246046.094,320400
1580246056.094,320437
1580246066.094,320471
1580246076.095,320504
1580246086.096,320505
1580246096.094,320505
1580246106.094,320505
1580246116.094,320506
1580246126.094,320508
1580246136.094,320508
1580246146.094,320510
1580246156.094,320510
1580246166.095,320510
1580246176.097,320510
1580246186.095,320511
1580246196.094,320511
1580246206.095,320512
1580246216.094,320512
1580246226.095,320512
1580246236.094,320512
1580246246.094,320512
1580246256.095,320512
1580246266.095,320512
1580246276.094,320512
1580246286.094,320513
1580246296.094,320513
1580246306.094,320513
1580246316.094,320513
1580246326.096,320514
1580246336.094,320514
1580246346.094,320514
1580246356.094,320515
1580246366.094,320516
1580246376.094,320517
1580246386.094,320517
1580246396.095,320519
1580246406.096,320520
1580246416.094,320520
1580246426.094,320520
1580246436.094,320520
1580246446.095,320520
1580246456.095,320521
1580246466.094,320522
1580246476.094,320523
1580246486.094,320524
1580246496.094,320524
1580246506.096,320525
1580246516.094,320525
1580246526.095,320526
1580246536.094,320526
1580246546.095,320527
1580246556.095,320527
1580246566.094,320528
1580246576.094,320530
1580246586.095,320530
1580246596.094,320530
1580246606.094,320530
1580246616.094,320530
1580246626.096,320530
1580246636.094,320531
1580246646.094,320532
1580246656.094,320532
1580246666.094,320532
1580246676.094,320533
1580246686.094,320533
1580246696.094,320533
1580246706.094,320533
1580246716.095,320533
1580246726.096,320534
1580246736.096,320534
1580246746.094,320534
1580246756.094,320534
1580246766.094,320534
1580246776.094,320535
1580246786.094,320535
1580246796.094,320535
1580246806.094,320535
1580246816.094,320536
1580246826.094,320536
1580246836.094,320538
1580246846.094,320539
1580246856.095,320539
1580246866.094,320540
1580246876.097,320541
1580246886.094,320541
1580246896.094,320542
1580246906.095,320544
1580246916.094,320544
1580246926.094,320544
1580246936.094,320544
1580246946.094,320545
1580246956.094,320545
1580246966.095,320546
1580246976.094,320548
1580246986.094,320548
1580246996.094,320549
1580247006.094,320552
1580247016.094,320552
1580247026.094,320552
1580247036.094,320552
1580247046.094,320552
1580247056.094,320552
1580247066.095,320552
1580247076.096,320552
1580247086.095,320552
1580247096.094,320553
1580247106.095,320554
1580247116.094,320555
1580247126.094,320555
1580247136.094,320555
1580247146.094,320557
1580247156.095,320557
1580247166.094,320557
1580247176.094,320557
1580247186.094,320557
1580247196.094,320558
1580247206.094,320558
1580247216.094,320559
1580247226.096,320559
1580247236.094,320560
1580247246.096,320560
1580247256.094,320560
1580247266.094,320561
1580247276.094,320561
1580247286.094,320562
1580247296.095,320564
1580247306.095,320564
1580247316.096,320564
1580247326.094,320564
1580247336.095,320564
1580247346.094,320566
1580247356.094,320567
1580247366.094,320567
1580247376.094,320569
1580247386.094,320569
1580247396.094,320569
1580247406.094,320569
1580247416.095,320569
1580247426.094,320570
1580247436.095,320570
1580247446.094,320571
1580247456.094,320571
1580247466.094,320571
1580247476.094,320571
1580247486.094,320571
1580247496.094,320571
1580247506.094,320571
1580247516.095,320574
1580247526.094,320574
1580247536.094,320574
1580247546.094,320575
1580247556.094,320575
1580247566.094,320576
1580247576.094,320576
1580247586.094,320577
1580247596.094,320577
1580247606.095,320577
1580247616.096,320579
1580247626.094,320580
1580247636.095,320580
1580247646.094,320581
1580247656.095,320581
1580247666.094,320582
1580247676.095,320583
1580247686.094,320584
1580247696.094,320585
1580247706.094,320586
1580247716.094,320589
1580247726.096,320590
1580247736.094,320590
1580247746.094,320591
1580247756.094,320591
1580247766.094,320592
1580247776.095,320593
1580247786.094,320594
1580247796.094,320595
1580247806.094,320595
1580247816.094,320596
1580247826.094,320598
1580247836.094,320599
1580247846.094,320599
1580247856.094,320601
1580247866.095,320601
1580247876.094,320601
1580247886.094,320601
1580247896.094,320601
1580247906.094,320602
1580247916.098,320603
1580247926.094,320603
1580247936.095,320604
1580247946.094,320604
1580247956.095,320605
1580247966.094,320606
1580247976.094,320607
1580247986.094,320608
1580247996.094,320608
1580248006.094,320610
1580248016.094,320612
1580248026.095,320612
1580248036.094,320612
1580248046.094,320612
1580248056.094,320612
1580248066.094,320612
1580248076.094,320612
1580248086.095,320612
1580248096.094,320612
1580248106.094,320613
1580248116.094,320614
1580248126.094,320614
1580248136.094,320616
1580248146.094,320616
1580248156.095,320617
1580248166.094,320618
1580248176.094,320618
1580248186.094,320619
1580248196.095,320620
1580248206.094,320621
1580248216.094,320621
1580248226.094,320621
1580248236.094,320622
1580248246.094,320624
1580248256.094,320624
1580248266.096,320625
1580248276.094,320626
1580248286.094,320626
1580248296.094,320626
1580248306.094,320627
1580248316.095,320627
1580248326.094,320628
1580248336.094,320628
1580248346.094,320628
1580248356.094,320628
1580248366.094,320629
