epoch,value
1580476374.085,0
1580476384.085,0
1580476394.085,0
1580476404.085,0
1580476414.085,12
1580476424.085,13
1580476434.085,13
1580476444.085,14
1580476454.085,14
1580476464.085,22
1580476474.085,34
1580476484.085,34
1580476494.086,35
1580476504.085,35
1580476514.085,35
1580476524.085,36
1580476534.085,37
1580476544.085,37
1580476554.085,38
1580476564.085,38
1580476574.085,38
1580476584.085,39
1580476594.085,39
1580476604.085,40
1580476614.085,40
1580476624.085,40
1580476634.085,42
1580476644.085,42
1580476654.085,42
1580476664.085,44
1580476674.085,45
1580476684.085,45
1580476694.085,47
1580476704.085,47
1580476714.085,47
1580476724.085,47
1580476734.085,47
1580476744.085,47
1580476754.085,47
1580476764.085,47
1580476774.085,47
1580476784.085,47
1580476794.085,47
1580476804.085,47
1580476814.085,47
1580476824.085,47
1580476834.085,47
1580476844.085,47
1580476854.085,48
1580476864.085,48
1580476874.085,48
1580476884.085,48
1580476894.085,48
1580476904.085,48
1580476914.085,48
1580476924.085,48
1580476934.085,48
1580476944.085,48
1580476954.085,48
1580476964.085,48
1580476974.085,49
1580476984.085,49
1580476994.085,49
1580477004.085,49
1580477014.085,49
1580477024.085,49
1580477034.085,49
1580477044.089,49
1580477054.085,49
1580477064.085,49
1580477074.085,49
1580477084.085,49
1580477094.085,49
1580477104.085,49
1580477114.085,49
1580477124.085,49
1580477134.085,49
1580477144.085,49
1580477154.085,50
1580477164.085,50
1580477174.085,50
1580477184.085,50
1580477194.085,50
1580477204.085,50
1580477214.085,50
1580477224.085,50
1580477234.085,50
1580477244.085,50
1580477254.085,50
1580477264.085,50
1580477274.085,50
1580477284.085,50
1580477294.085,50
1580477304.085,50
1580477314.085,50
1580477324.085,50
1580477334.085,50
1580477344.085,50
1580477354.085,50
1580477364.085,50
1580477374.085,50
1580477384.085,50
1580477394.085,50
1580477404.085,50
1580477414.085,50
1580477424.085,50
1580477434.085,50
1580477444.085,50
1580477454.085,50
1580477464.085,50
1580477474.085,51
1580477484.085,51
1580477494.085,51
1580477504.085,51
1580477514.085,51
1580477524.085,51
1580477534.085,51
1580477544.085,51
1580477554.085,51
1580477564.085,51
1580477574.085,51
1580477584.085,51
1580477594.085,51
1580477604.085,51
1580477614.085,51
1580477624.085,51
1580477634.085,51
1580477644.085,51
1580477654.085,51
1580477664.085,51
1580477674.085,51
1580477684.085,51
1580477694.085,51
1580477704.085,51
1580477714.085,51
1580477724.085,51
1580477734.085,51
1580477744.085,51
1580477754.085,52
1580477764.085,52
1580477774.085,52
1580477784.085,52
1580477794.085,52
1580477804.085,52
1580477814.085,52
1580477824.085,52
1580477834.085,52
1580477844.085,52
1580477854.085,52
1580477864.085,52
1580477874.085,52
1580477884.085,52
1580477894.085,52
1580477904.085,52
