epoch,value
1580586617.347,0
1580586627.347,0
1580586647.347,0
1580586657.347,0
1580586667.347,0
1580586677.347,0
1580586687.347,1
1580586697.347,1
1580586707.347,1
1580586717.347,1
1580586727.347,1
1580586737.347,1
1580586747.347,2
1580586757.347,2
1580586767.347,2
1580586777.347,2
1580586787.347,2
1580586797.347,2
1580586807.347,2
1580586817.347,2
1580586827.347,3
1580586837.347,3
1580586847.347,3
1580586857.347,3
1580586867.347,3
1580586877.347,3
1580586887.347,3
1580586897.347,3
1580586907.347,3
1580586917.347,4
1580586927.347,4
1580586937.347,4
1580586947.347,4
1580586957.347,4
1580586967.347,4
1580586977.347,4
1580586987.347,4
1580586997.347,4
1580587007.347,4
1580587017.347,4
1580587027.347,4
1580587037.347,4
1580587047.347,4
1580587057.347,4
1580587067.347,5
1580587077.347,5
1580587087.347,5
1580587097.347,5
1580587107.347,5
1580587117.347,5
1580587127.347,5
1580587137.347,5
1580587147.347,5
1580587157.347,5
1580587167.347,5
1580587177.347,5
1580587187.347,5
1580587197.347,6
1580587207.347,6
1580587217.347,6
1580587227.347,6
1580587237.347,6
1580587247.347,6
1580587257.347,6
1580587267.349,6
1580587277.347,6
1580587287.347,6
1580587297.347,6
1580587307.351,6
1580587317.347,6
1580587327.347,6
1580587337.347,6
1580587347.347,6
1580587357.347,6
1580587367.347,6
1580587377.347,6
1580587387.347,6
1580587397.350,6
1580587407.347,6
1580587417.347,6
1580587427.347,6
1580587437.347,6
1580587447.347,6
1580587457.347,7
1580587467.347,7
1580587477.347,7
1580587487.347,7
1580587497.347,7
1580587507.347,7
1580587517.347,7
1580587527.347,7
1580587547.347,7
1580587557.347,7
1580587567.347,7
1580587577.351,7
1580587587.347,7
1580587597.347,7
1580587607.347,7
1580587617.347,7
1580587627.347,7
1580587637.347,7
1580587647.347,8
1580587657.347,8
1580587667.347,8
1580587677.347,8
1580587687.347,8
1580587697.347,8
1580587707.347,8
1580587717.347,8
1580587727.347,8
1580587737.347,8
1580587747.347,8
1580587757.347,8
1580587767.347,8
1580587777.347,8
1580587787.347,8
1580587797.347,9
1580587807.347,9
1580587817.347,9
1580587827.347,9
1580587837.347,9
1580587847.347,9
1580587857.347,9
1580587867.347,9
1580587877.347,9
1580587887.347,9
1580587897.347,9
1580587907.347,9
1580587917.347,9
1580587927.347,9
1580587937.347,9
1580587947.347,9
1580587957.347,9
1580587967.347,9
1580587977.347,9
1580587987.347,9
1580587997.347,9
1580588007.347,9
1580588017.347,9
1580588027.347,10
1580588037.347,10
1580588047.347,10
1580588057.347,10
1580588067.347,10
1580588077.347,10
1580588087.347,10
1580588097.347,10
1580588107.347,10
1580588117.347,11
1580588127.347,11
1580588137.347,11
1580588147.347,11
1580588157.347,11
1580588167.347,11
1580588177.347,11
1580588187.347,11
1580588197.347,11
1580588207.347,11
1580588217.347,11
1580588227.347,11
1580588237.347,11
1580588247.347,11
1580588257.347,11
1580588267.347,11
1580588277.347,11
1580588297.347,12
1580588307.347,12
1580588317.347,12
1580588327.347,12
1580588337.349,12
1580588347.347,12
1580588357.347,12
1580588367.347,12
1580588377.347,12
1580588387.347,12
1580588397.347,12
1580588407.347,12
1580588417.347,12
1580588427.347,12
1580588437.347,12
1580588447.347,13
1580588457.347,13
1580588467.347,13
1580588477.347,13
1580588487.347,13
1580588497.347,13
1580588507.347,13
1580588517.347,13
1580588527.347,13
1580588537.347,13
1580588547.348,13
1580588557.348,13
1580588567.347,13
1580588577.347,13
1580588587.347,13
1580588597.347,13
1580588607.347,13
1580588617.347,13
1580588627.347,13
1580588637.347,13
1580588647.347,13
1580588657.347,13
1580588667.347,13
1580588677.347,13
1580588687.347,13
1580588697.347,14
1580588707.347,14
1580588717.347,14
1580588727.347,14
1580588737.347,14
1580588747.347,14
1580588757.347,14
1580588767.347,14
1580588777.347,14
1580588787.347,14
1580588797.347,14
1580588807.347,14
1580588817.347,14
1580588827.347,14
1580588837.347,14
1580588847.347,14
1580588857.347,14
1580588867.347,14
1580588877.347,14
1580588887.347,14
1580588897.347,15
1580588907.347,15
1580588917.347,15
1580588927.347,15
1580588937.347,15
1580588947.347,15
1580588957.351,15
1580588967.347,15
1580588977.347,15
1580588987.347,15
1580588997.347,15
1580589007.347,15
1580589017.347,15
1580589027.347,15
1580589037.347,15
1580589047.347,15
1580589057.347,15
1580589067.347,16
1580589077.347,16
1580589087.347,16
1580589097.347,16
1580589107.347,16
1580589117.347,16
1580589127.347,16
1580589137.347,16
1580589147.347,16
1580589157.347,16
1580589167.347,16
1580589177.347,16
1580589187.347,16
1580589197.347,16
1580589207.347,16
1580589217.347,16
1580589227.347,16
1580589237.347,16
1580589247.347,16
1580589257.347,17
1580589267.347,17
1580589277.347,17
1580589287.347,17
1580589297.347,17
1580589307.347,17
1580589317.347,17
1580589327.347,17
1580589337.347,17
1580589347.347,17
1580589357.347,17
1580589367.347,17
1580589377.347,17
1580589387.347,17
1580589397.347,17
1580589407.347,17
1580589417.347,17
1580589427.347,17
1580589437.347,17
1580589447.347,17
1580589457.347,17
1580589467.347,17
1580589477.347,17
1580589487.351,18
1580589497.347,18
1580589507.347,18
1580589517.347,18
1580589527.347,18
1580589537.347,18
1580589547.347,18
1580589557.347,18
1580589567.347,18
1580589577.347,18
1580589587.347,18
1580589597.347,18
1580589607.347,18
1580589617.347,18
1580589627.347,18
1580589637.347,18
1580589647.347,18
1580589657.347,18
1580589667.347,18
1580589677.347,18
1580589687.347,18
1580589697.347,18
1580589707.347,18
1580589717.347,18
1580589727.347,19
1580589737.347,19
1580589747.347,19
1580589757.347,19
1580589767.347,19
1580589777.347,19
1580589787.347,19
1580589797.347,19
1580589807.347,19
1580589817.347,19
1580589827.347,19
1580589837.347,19
1580589847.347,19
1580589857.347,19
1580589867.347,19
1580589877.347,19
1580589887.347,19
1580589897.347,19
1580589907.347,19
1580589917.347,19
1580589927.347,19
1580589937.347,19
1580589947.347,19
1580589957.347,20
1580589967.347,20
1580589977.347,20
1580589987.347,20
1580589997.347,20
1580590007.347,20
1580590017.347,20
1580590027.347,20
1580590037.347,20
1580590047.347,20
1580590057.347,20
1580590067.347,20
1580590077.347,20
1580590087.347,20
1580590097.347,20
1580590107.347,20
1580590117.347,20
1580590127.347,20
1580590137.347,20
1580590147.347,20
1580590157.347,21
1580590167.347,21
1580590177.347,21
1580590187.347,21
1580590197.347,21
1580590207.347,21
1580590217.347,21
1580590227.347,21
1580590237.347,21
1580590247.347,21
1580590257.347,21
1580590267.347,21
1580590277.347,21
1580590287.347,21
1580590297.347,21
1580590307.347,21
1580590317.347,21
1580590327.347,21
1580590337.347,21
1580590347.347,21
1580590357.347,21
1580590367.347,22
1580590377.347,22
1580590387.347,22
1580590397.347,22
1580590407.347,22
1580590427.347,22
1580590437.347,22
1580590447.347,22
1580590457.347,22
1580590467.347,22
1580590477.347,22
1580590487.347,22
1580590497.347,23
1580590507.347,23
1580590517.347,23
1580590527.347,23
1580590537.347,23
1580590547.347,23
1580590557.347,23
1580590567.347,23
1580590577.347,23
1580590587.347,23
1580590597.347,23
1580590607.347,23
1580590617.347,23
1580590627.347,23
1580590637.347,23
1580590647.347,23
1580590657.347,23
1580590667.347,23
1580590677.347,23
1580590687.347,23
1580590697.347,23
1580590707.347,23
1580590717.347,23
1580590727.347,23
1580590737.347,23
1580590747.347,24
1580590757.347,24
1580590767.347,24
1580590777.347,24
1580590787.347,24
1580590797.347,24
1580590807.347,24
1580590817.348,24
1580590827.347,24
1580590837.347,24
1580590847.347,24
1580590857.347,24
1580590867.347,24
1580590877.347,24
1580590887.347,24
1580590897.347,24
1580590907.347,25
1580590917.347,25
1580590927.347,25
1580590937.347,25
1580590947.347,25
1580590957.347,25
1580590967.347,25
1580590977.347,25
1580590987.347,25
1580590997.347,25
1580591007.347,25
1580591017.347,25
1580591027.347,25
1580591037.347,25
1580591047.348,25
1580591057.347,25
1580591067.347,25
1580591077.347,26
1580591087.347,26
1580591097.347,26
1580591107.347,26
1580591117.347,26
1580591127.347,26
1580591137.347,26
1580591147.347,26
1580591157.347,26
1580591167.347,26
1580591177.347,26
1580591187.347,26
1580591197.347,26
1580591207.347,26
1580591217.347,26
1580591227.347,26
1580591237.347,26
1580591247.347,26
1580591257.347,26
1580591267.347,26
1580591277.347,26
1580591287.347,27
1580591297.347,27
1580591307.347,27
1580591317.347,27
1580591327.347,27
1580591337.347,27
1580591347.347,27
1580591357.347,27
1580591367.347,27
1580591377.347,27
1580591387.347,27
1580591397.347,27
1580591407.347,27
1580591417.347,27
1580591427.347,27
1580591437.347,27
1580591447.347,27
1580591457.347,27
1580591467.347,27
1580591477.347,27
1580591487.347,28
1580591497.347,28
1580591507.347,28
1580591517.347,28
1580591527.347,28
1580591537.347,28
1580591547.347,28
1580591557.347,28
1580591567.347,28
1580591577.347,28
1580591587.347,28
1580591597.347,28
1580591607.347,28
1580591617.347,28
1580591627.347,28
1580591637.347,28
1580591647.347,28
1580591657.347,28
1580591667.347,29
1580591677.347,29
1580591687.347,29
1580591697.347,29
1580591707.347,29
1580591717.347,29
1580591727.347,29
1580591737.347,29
1580591747.347,29
1580591757.347,29
1580591767.347,29
1580591777.347,29
1580591787.347,29
1580591797.348,29
1580591807.347,29
1580591817.347,29
1580591827.347,30
1580591837.347,30
1580591847.347,30
1580591857.347,30
1580591867.347,30
1580591877.347,30
1580591887.347,30
1580591897.347,30
1580591907.347,30
1580591917.347,30
1580591927.347,30
1580591937.347,30
1580591947.347,30
1580591957.347,30
1580591967.347,30
1580591977.351,30
1580591987.347,31
1580591997.347,31
1580592007.347,31
1580592017.347,31
1580592027.347,31
1580592037.347,31
1580592047.347,31
1580592057.347,31
1580592067.347,31
1580592077.347,31
1580592087.347,31
1580592097.347,31
1580592107.347,31
1580592117.347,31
1580592127.347,31
1580592137.348,31
1580592147.347,31
1580592157.347,31
1580592167.347,31
1580592177.347,31
1580592187.347,31
1580592197.348,31
1580592207.347,31
1580592217.347,31
1580592227.347,32
1580592237.347,32
1580592247.347,32
1580592257.348,32
1580592267.347,32
1580592277.347,32
1580592287.347,32
1580592297.347,32
1580592307.347,32
1580592317.347,32
1580592327.347,32
1580592337.347,32
1580592347.347,32
1580592357.347,32
1580592367.347,32
1580592377.347,32
1580592387.347,32
1580592397.347,32
1580592407.347,32
1580592417.347,32
1580592427.347,32
1580592437.347,32
1580592447.347,32
1580592457.347,33
1580592467.347,33
1580592477.347,33
1580592487.347,33
1580592497.347,33
1580592507.347,33
1580592517.347,33
1580592527.347,33
1580592537.347,33
1580592547.347,33
1580592557.347,33
1580592567.347,33
1580592577.347,33
1580592587.347,33
1580592597.347,34
1580592607.347,34
1580592617.347,34
1580592627.347,34
1580592637.347,34
1580592647.347,34
1580592657.347,34
1580592667.347,34
1580592677.347,34
1580592687.347,34
1580592697.347,34
1580592707.347,34
1580592717.347,34
1580592727.347,34
1580592737.347,35
1580592747.347,35
1580592757.347,35
1580592767.347,35
1580592777.347,35
1580592787.347,35
1580592797.347,35
1580592807.347,35
1580592817.347,35
1580592827.347,35
1580592837.347,35
1580592847.347,35
1580592857.347,35
1580592867.347,35
1580592877.347,35
1580592887.347,35
1580592897.347,35
1580592907.347,35
1580592917.347,35
1580592927.347,35
1580592937.347,35
1580592947.347,36
1580592957.347,36
1580592967.347,36
1580592977.347,36
1580592987.347,36
1580592997.347,36
1580593007.347,36
1580593017.347,36
1580593027.347,36
1580593037.347,36
1580593047.347,36
1580593057.349,36
1580593067.347,36
1580593077.347,36
1580593087.347,36
1580593097.351,37
1580593107.347,37
1580593117.347,37
1580593127.347,37
1580593137.347,37
1580593147.347,37
1580593157.347,37
1580593167.347,37
1580593177.347,37
1580593187.347,37
1580593197.347,37
1580593207.347,38
1580593217.347,38
1580593227.347,38
1580593237.347,38
1580593247.347,38
1580593257.347,38
1580593267.347,38
1580593277.347,38
1580593287.347,38
1580593297.347,38
1580593307.347,38
1580593317.347,38
1580593327.347,38
1580593337.347,38
1580593347.347,38
1580593357.347,38
1580593367.347,38
1580593387.347,38
1580593397.347,39
1580593407.347,39
1580593417.347,39
1580593427.347,39
1580593437.347,39
1580593447.347,39
1580593457.347,39
1580593467.347,39
1580593477.347,39
1580593487.347,39
1580593497.347,39
1580593507.347,39
1580593517.347,40
1580593527.347,40
1580593537.347,40
1580593547.347,40
1580593557.347,40
1580593567.347,40
1580593577.347,40
1580593587.347,40
1580593597.347,40
1580593607.347,40
1580593617.347,40
1580593627.347,40
1580593637.347,40
1580593647.347,40
1580593657.347,40
1580593667.347,40
1580593677.347,40
1580593687.347,40
1580593697.347,41
1580593707.347,41
1580593717.347,41
1580593727.347,41
1580593737.347,41
1580593747.347,41
1580593757.347,41
1580593767.347,41
1580593777.347,41
1580593797.347,42
1580593807.347,42
1580593817.347,42
1580593827.347,42
1580593837.347,42
1580593847.347,42
1580593857.347,42
1580593867.347,42
1580593877.347,42
1580593887.347,42
1580593897.347,43
1580593907.347,43
1580593917.347,43
1580593927.347,43
1580593937.347,43
1580593947.347,43
1580593957.347,43
1580593967.347,43
1580593977.347,43
1580593987.347,43
1580593997.347,43
1580594007.347,43
1580594017.347,43
1580594027.347,44
1580594037.347,44
1580594047.348,44
1580594057.347,44
1580594067.347,44
1580594077.347,44
1580594087.347,44
1580594097.347,44
1580594107.347,44
1580594117.347,44
1580594127.347,44
1580594137.347,44
1580594147.347,45
1580594157.347,45
1580594167.347,45
1580594177.347,45
1580594187.347,45
1580594197.347,45
1580594207.347,45
1580594217.347,45
1580594227.347,45
1580594237.347,45
1580594247.347,45
1580594257.347,45
1580594267.347,45
1580594277.347,45
1580594287.347,45
1580594297.347,45
1580594307.347,45
1580594317.347,45
1580594327.347,45
1580594337.347,45
1580594347.347,46
1580594357.347,46
1580594367.347,46
1580594377.347,46
1580594387.347,46
1580594397.347,46
1580594407.347,46
1580594417.347,46
1580594427.347,46
1580594437.347,46
1580594447.349,46
1580594457.347,46
1580594467.347,46
1580594477.347,46
1580594487.347,46
1580594497.347,46
1580594507.347,46
1580594517.347,46
1580594527.347,47
1580594537.347,47
1580594547.347,47
1580594557.347,47
1580594567.347,47
1580594577.347,47
1580594587.347,47
1580594597.347,47
1580594607.347,47
1580594617.347,47
1580594627.347,47
1580594637.347,47
1580594647.349,47
1580594657.347,48
1580594667.347,48
1580594677.347,48
1580594687.347,48
1580594697.347,48
1580594707.347,48
1580594717.347,48
1580594727.347,48
