epoch,value
1580242462.510,53699
1580242472.491,53699
1580242482.491,53699
1580242492.491,53699
1580242502.491,53699
1580242512.491,53699
1580242522.492,53699
1580242532.491,53699
1580242542.491,53699
1580242552.492,53699
1580242562.491,53699
1580242572.494,53699
1580242582.491,53699
1580242592.492,53699
1580242602.491,53699
1580242612.491,53699
1580242622.491,53699
1580242632.491,53699
1580242642.492,53700
1580242652.491,53700
1580242662.491,53702
1580242672.494,53702
1580242682.491,53702
1580242692.491,53702
1580242702.491,53703
1580242712.491,53703
1580242722.492,53703
1580242732.495,53703
1580242742.491,53703
1580242752.491,53703
1580242762.491,53703
1580242772.491,53703
1580242782.493,53703
1580242792.492,53703
1580242802.492,53703
1580242812.494,53703
1580242822.492,53703
1580242832.491,53703
1580242842.491,53703
1580242852.491,53703
1580242862.491,53703
1580242872.491,53703
1580242882.491,53703
1580242892.492,53703
1580242902.491,53703
1580242912.491,53703
1580242922.491,53703
1580242932.491,53703
1580242942.491,53703
1580242952.492,53703
1580242962.492,53704
1580242972.492,53704
1580242982.491,53704
1580242992.491,53704
1580243002.491,53704
1580243012.493,53704
1580243022.491,53704
1580243032.491,53705
1580243042.491,53705
1580243052.491,53705
1580243062.491,53705
1580243072.493,53705
1580243082.491,53705
1580243092.491,53705
1580243102.491,53705
1580243112.491,53706
1580243122.491,53707
1580243132.493,53707
1580243142.492,53707
1580243152.494,53708
1580243162.491,53708
1580243172.491,53708
1580243182.492,53708
1580243192.491,53708
1580243202.492,53708
1580243212.491,53708
1580243222.493,53708
1580243232.491,53708
1580243242.493,53708
1580243252.491,53709
1580243262.493,53709
1580243272.491,53709
1580243282.491,53709
1580243292.492,53709
1580243302.491,53709
1580243312.494,53709
1580243322.491,53709
1580243332.491,53709
1580243342.491,53709
1580243352.492,53709
1580243362.491,53712
1580243372.491,53712
1580243382.496,53713
1580243392.491,53714
1580243402.491,53714
1580243412.492,53714
1580243422.493,53714
1580243432.491,53714
1580243442.491,53714
1580243452.491,53714
1580243462.493,53714
1580243472.491,53714
1580243482.491,53714
1580243492.491,53714
1580243502.491,53714
1580243512.491,53714
1580243522.491,53716
1580243532.491,53716
1580243542.491,53716
1580243552.491,53716
1580243562.491,53716
1580243572.491,53716
1580243582.491,53716
1580243592.491,53716
1580243602.491,53716
1580243612.491,53716
1580243622.491,53716
1580243632.491,53716
1580243642.491,53716
1580243652.492,53716
1580243662.492,53716
1580243672.491,53716
1580243682.491,53716
1580243692.491,53716
1580243702.492,53716
1580243712.491,53716
1580243722.492,53716
1580243732.494,53716
1580243742.494,53716
1580243752.492,53718
1580243762.492,53718
1580243772.491,53718
1580243782.491,53718
1580243792.492,53718
1580243802.491,53718
1580243812.491,53718
1580243822.492,53718
1580243832.494,53718
1580243842.491,53718
1580243852.491,53720
1580243862.491,53722
1580243872.491,53722
1580243882.496,53722
1580243892.493,53723
1580243902.491,53723
1580243912.492,53723
1580243922.491,53723
1580243932.493,53723
1580243942.491,53723
1580243952.492,53723
1580243962.492,53723
1580243972.492,53723
1580243982.493,53723
1580243992.491,53724
1580244002.491,53724
1580244012.491,53724
1580244022.491,53724
1580244032.491,53724
1580244042.492,53724
1580244052.491,53724
1580244062.491,53724
1580244072.491,53724
1580244082.491,53724
1580244092.491,53724
1580244102.491,53724
1580244112.491,53724
1580244122.491,53724
1580244132.492,53724
1580244142.491,53724
1580244152.491,53725
1580244162.491,53725
1580244172.491,53725
1580244182.493,53725
1580244192.491,53725
1580244202.493,53726
1580244212.491,53726
1580244222.491,53726
1580244232.493,53726
1580244242.491,53726
1580244252.491,53727
1580244262.492,53727
1580244272.492,53727
1580244282.497,53728
1580244292.491,53728
1580244302.491,53728
1580244312.492,53728
1580244322.491,53728
1580244332.493,53728
1580244342.491,53728
1580244352.491,53728
1580244362.493,53728
1580244372.492,53729
1580244382.492,53731
1580244392.491,53731
1580244402.491,53731
1580244412.492,53731
1580244422.491,53731
1580244432.491,53731
1580244442.491,53731
1580244452.491,53733
1580244462.493,53733
1580244472.492,53733
1580244482.491,53733
1580244492.491,53733
1580244502.492,53733
1580244512.493,53733
1580244522.491,53733
1580244532.491,53733
1580244542.492,53733
1580244552.493,53733
1580244562.494,53733
1580244572.493,53733
1580244582.491,53733
1580244592.491,53733
1580244602.491,53733
1580244612.492,53733
1580244622.491,53733
1580244632.491,53733
1580244642.493,53733
1580244652.491,53735
1580244662.491,53735
1580244672.491,53735
1580244682.491,53735
1580244692.491,53735
1580244702.491,53735
1580244712.492,53735
1580244722.492,53735
1580244732.491,53735
1580244742.491,53735
1580244752.491,53735
1580244762.492,53735
1580244772.491,53735
1580244782.491,53735
1580244792.494,53735
1580244802.492,53735
1580244812.491,53735
1580244822.494,53735
1580244832.492,53735
1580244842.491,53735
1580244852.493,53735
1580244862.493,53735
1580244872.491,53735
1580244882.491,53735
1580244892.492,53735
1580244902.491,53735
1580244912.492,53735
1580244922.492,53735
1580244932.491,53735
1580244942.491,53735
1580244952.492,53735
1580244962.494,53735
1580244972.492,53735
1580244982.491,53735
1580244992.491,53735
1580245002.491,53735
1580245012.491,53736
1580245022.491,53736
1580245032.491,53736
1580245042.492,53736
1580245052.492,53736
1580245062.491,53736
1580245072.492,53736
1580245082.494,53736
1580245092.493,53736
1580245102.492,53736
1580245112.493,53738
1580245122.491,53738
1580245132.491,53738
1580245142.491,53738
1580245152.491,53738
1580245162.491,53738
1580245172.491,53738
1580245182.492,53738
1580245192.491,53739
1580245202.491,53740
1580245212.491,53740
1580245222.491,53741
