epoch,value
1580483437.161,8852
1580483447.134,8852
1580483457.134,8852
1580483467.134,8852
1580483477.134,8852
1580483487.134,8852
1580483497.134,8852
1580483507.134,8852
1580483517.135,8852
1580483527.134,8852
1580483537.134,8852
1580483547.134,8852
1580483557.134,8852
1580483567.134,8852
1580483577.134,8852
1580483587.134,8852
1580483597.137,8852
1580483607.134,8852
1580483617.134,8852
1580483627.134,8852
1580483637.135,8852
1580483647.134,8852
1580483657.134,8852
1580483667.134,8852
1580483677.134,8852
1580483687.135,8852
1580483697.134,8852
1580483707.135,8852
1580483717.136,8852
1580483727.134,8852
1580483737.134,8852
1580483747.134,8852
1580483757.134,8852
1580483767.135,8852
1580483777.134,8852
1580483787.134,8852
1580483797.134,8852
1580483807.134,8852
1580483817.134,8852
1580483827.135,8852
1580483837.134,8852
1580483847.134,8852
1580483857.134,8852
1580483867.134,8852
1580483877.134,8852
1580483887.134,8853
1580483897.134,8853
1580483907.134,8853
1580483917.135,8853
1580483927.134,8854
1580483937.134,8855
1580483947.134,8855
1580483957.134,8855
1580483967.134,8855
1580483977.134,8855
1580483987.135,8855
1580483997.135,8855
1580484007.134,8855
1580484017.134,8855
1580484027.134,8855
1580484037.134,8855
1580484047.134,8855
1580484057.134,8855
1580484067.135,8855
1580484077.135,8856
1580484087.135,8856
1580484097.134,8856
1580484107.134,8856
1580484117.134,8856
1580484127.134,8856
1580484137.136,8856
1580484147.135,8856
1580484157.134,8856
1580484167.134,8856
1580484177.136,8856
1580484187.134,8856
1580484197.134,8856
1580484207.135,8856
1580484217.134,8856
1580484227.134,8856
1580484237.134,8856
1580484247.134,8856
1580484257.134,8856
1580484267.134,8856
1580484277.134,8856
1580484287.136,8856
1580484297.134,8856
1580484307.135,8856
1580484317.134,8856
1580484327.134,8856
1580484337.134,8856
1580484347.134,8856
1580484357.134,8856
1580484367.134,8856
1580484377.134,8856
1580484387.134,8856
1580484397.134,8856
1580484407.134,8856
1580484417.134,8856
1580484427.134,8856
1580484437.137,8856
1580484447.134,8856
1580484457.134,8856
1580484467.134,8856
1580484477.135,8856
1580484487.137,8856
1580484497.134,8856
1580484507.134,8856
1580484517.134,8856
1580484527.134,8856
1580484537.134,8856
1580484547.134,8856
1580484557.134,8856
1580484567.134,8856
1580484577.134,8856
1580484587.134,8856
1580484597.134,8856
1580484607.140,8856
1580484617.136,8856
1580484627.134,8856
1580484637.135,8856
1580484647.134,8857
1580484657.134,8857
1580484667.136,8857
1580484677.134,8857
1580484687.134,8857
1580484697.135,8857
1580484707.134,8858
1580484717.134,8858
1580484727.134,8858
1580484737.134,8858
1580484747.134,8858
1580484757.134,8858
1580484767.135,8858
1580484777.134,8858
1580484787.136,8858
1580484797.135,8858
1580484807.134,8858
1580484817.134,8858
1580484827.134,8858
1580484837.134,8858
1580484847.134,8858
1580484857.134,8858
1580484867.134,8858
1580484877.134,8858
1580484887.134,8858
1580484897.134,8858
1580484907.135,8858
1580484917.134,8858
1580484927.135,8858
1580484937.137,8858
1580484947.134,8858
1580484957.136,8858
1580484967.135,8858
1580484977.135,8858
1580484987.134,8858
1580484997.134,8858
