epoch,value
1579805033.070,0
1579805043.070,0
1579805053.070,0
1579805063.070,1
1579805073.070,6
1579805083.070,8
1579805093.070,12
1579805103.070,14
1579805113.070,15
1579805123.070,17
1579805133.070,21
1579805143.070,25
1579805153.070,30
1579805163.070,46
1579805173.070,55
1579805183.070,60
1579805193.070,68
1579805203.070,72
1579805213.070,77
1579805223.070,83
1579805233.070,89
1579805243.070,94
1579805253.070,102
1579805263.070,105
1579805273.070,110
1579805283.074,135
1579805293.070,146
1579805303.070,149
1579805313.070,153
1579805323.070,155
1579805333.070,158
1579805343.070,161
1579805353.070,168
1579805363.070,171
1579805373.070,171
1579805383.070,171
1579805393.070,171
1579805403.070,171
1579805413.070,171
1579805423.070,171
1579805433.070,171
1579805443.070,171
1579805453.070,171
1579805463.070,171
1579805473.070,171
1579805493.070,171
1579805503.070,171
1579805513.070,171
1579805523.070,171
1579805533.070,171
1579805543.070,171
1579805553.070,172
1579805563.070,172
1579805573.070,172
1579805583.070,172
1579805593.070,172
1579805603.070,172
1579805613.070,172
1579805623.070,172
1579805633.070,172
1579805643.070,172
1579805653.070,172
1579805663.070,172
1579805673.070,172
1579805683.070,173
1579805693.070,173
1579805703.070,173
1579805713.070,173
1579805723.070,173
1579805733.070,173
1579805743.070,173
1579805753.070,173
1579805763.070,173
1579805773.070,173
1579805783.070,173
1579805793.071,173
1579805803.070,173
1579805813.070,173
1579805823.070,173
1579805833.070,173
1579805843.070,173
1579805853.070,173
1579805863.070,173
1579805873.070,173
1579805883.070,173
1579805893.070,173
1579805903.070,173
1579805913.070,173
1579805923.070,173
1579805933.070,173
1579805943.070,174
1579805953.070,174
1579805963.070,174
1579805973.070,174
1579805983.070,174
1579805993.070,174
1579806003.072,174
1579806013.070,174
1579806023.073,174
1579806033.070,174
1579806043.070,174
1579806053.070,174
1579806063.070,174
1579806073.070,175
1579806083.070,175
1579806093.070,175
1579806103.070,175
1579806113.070,175
1579806123.070,175
1579806133.070,175
1579806143.070,175
1579806153.070,175
1579806163.070,175
1579806173.070,175
1579806183.070,175
1579806193.070,175
1579806203.070,175
1579806213.070,175
1579806223.070,175
1579806233.070,175
1579806243.070,175
1579806253.070,175
1579806263.070,176
1579806273.070,176
1579806283.070,176
1579806293.070,176
1579806303.070,176
1579806313.070,176
1579806323.070,176
1579806333.070,176
1579806343.070,176
1579806353.070,176
1579806363.070,176
1579806373.070,176
1579806383.070,176
1579806393.070,176
1579806403.070,176
1579806413.070,176
1579806423.070,176
1579806433.070,176
1579806443.070,176
1579806453.070,177
1579806463.070,177
1579806473.070,177
1579806483.070,177
1579806493.070,177
1579806503.070,177
1579806513.070,177
1579806523.070,177
1579806533.070,177
1579806543.070,177
1579806553.070,177
1579806563.070,177
