epoch,value
1580338802.973,114
1580338812.973,114
1580338822.973,114
1580338832.973,114
1580338842.973,114
1580338852.977,114
1580338862.973,114
1580338872.973,114
1580338882.973,114
1580338892.973,114
1580338902.979,114
1580338912.973,114
1580338922.973,114
1580338932.973,114
1580338942.973,114
1580338952.973,114
1580338962.973,114
1580338972.973,115
1580338982.973,115
1580338992.973,115
1580339002.977,115
1580339012.973,115
1580339022.973,115
1580339032.973,115
1580339042.973,115
1580339052.973,115
1580339062.973,115
1580339072.973,115
1580339082.973,115
1580339092.973,115
1580339102.973,115
1580339112.973,116
1580339122.973,116
1580339132.973,116
1580339142.973,116
1580339152.973,117
1580339162.973,117
1580339172.973,117
1580339182.973,117
1580339192.973,117
1580339202.973,118
1580339212.973,118
1580339222.973,118
1580339232.973,118
1580339242.973,118
1580339252.973,118
1580339262.973,118
1580339272.973,118
1580339282.973,118
1580339292.973,118
1580339302.973,118
1580339312.973,118
1580339322.973,118
1580339332.973,118
1580339342.973,118
1580339352.973,118
1580339362.973,119
1580339372.973,119
1580339382.973,119
1580339392.973,119
1580339402.973,119
1580339412.973,119
1580339422.973,119
1580339432.973,119
1580339442.973,119
1580339452.973,119
1580339462.973,119
1580339472.973,119
1580339482.973,119
1580339492.973,119
1580339502.973,119
1580339512.973,119
1580339522.973,119
1580339532.973,119
1580339542.973,119
1580339552.973,119
1580339562.973,119
1580339572.973,119
1580339582.973,119
1580339592.973,119
1580339602.973,119
1580339612.973,120
1580339622.973,120
1580339632.973,120
1580339642.973,120
1580339652.973,120
1580339662.973,120
1580339672.973,120
1580339682.973,120
1580339692.973,120
1580339702.973,121
1580339712.973,121
1580339722.973,121
1580339732.973,121
1580339742.973,121
1580339752.973,121
1580339762.973,121
1580339772.973,121
1580339782.973,121
1580339792.977,121
1580339802.973,122
1580339812.973,122
1580339822.973,122
1580339832.973,122
1580339842.975,122
1580339852.973,122
1580339862.973,123
1580339872.973,123
1580339882.973,123
1580339892.973,123
1580339902.973,123
1580339912.973,123
1580339922.973,123
1580339932.973,123
1580339942.974,123
1580339952.973,123
1580339962.973,124
1580339972.973,124
1580339982.973,124
1580339992.973,124
1580340002.973,124
1580340012.973,124
1580340022.973,124
1580340032.973,124
1580340042.973,124
1580340052.973,124
1580340062.973,124
1580340072.973,124
1580340082.973,125
1580340092.973,125
1580340102.973,125
1580340112.973,125
1580340122.973,125
1580340132.973,125
1580340142.973,125
1580340152.973,125
1580340162.973,125
1580340172.973,125
1580340182.973,125
1580340192.973,125
1580340202.973,125
1580340212.973,125
1580340222.973,125
1580340232.973,125
1580340242.973,125
1580340252.973,125
1580340262.973,125
1580340272.973,125
1580340282.973,126
1580340292.973,126
1580340302.973,126
1580340312.973,126
1580340322.973,126
1580340332.973,126
1580340342.973,126
1580340352.973,126
1580340362.973,126
1580340372.973,126
1580340382.973,126
1580340392.973,126
1580340402.973,126
1580340412.973,126
1580340422.973,126
1580340432.973,127
1580340442.973,127
1580340452.973,127
1580340462.973,127
1580340472.973,127
1580340482.973,127
1580340492.973,127
1580340502.973,127
1580340512.973,128
1580340522.973,128
1580340532.973,128
1580340542.973,128
1580340552.973,128
1580340562.973,129
1580340572.973,129
1580340582.973,129
1580340592.973,129
1580340602.973,129
1580340612.973,129
1580340622.973,129
1580340632.973,130
1580340642.973,130
1580340652.973,130
1580340662.973,131
1580340672.973,131
1580340682.973,131
1580340692.973,131
1580340702.973,131
1580340712.973,131
1580340722.973,132
1580340732.973,132
1580340742.973,132
1580340752.973,132
1580340762.973,132
1580340772.973,132
1580340782.973,132
1580340792.973,132
1580340802.973,133
1580340812.973,133
1580340822.973,133
1580340832.973,133
1580340842.973,133
1580340852.981,133
1580340862.973,133
1580340872.973,133
1580340882.973,133
1580340892.973,133
1580340902.973,133
1580340912.973,133
1580340922.973,133
1580340932.973,133
1580340942.973,133
1580340952.973,133
1580340962.973,133
1580340972.981,133
1580340982.973,133
1580340992.973,133
1580341002.973,134
1580341012.973,134
1580341022.973,134
1580341032.973,134
1580341042.973,134
1580341052.973,134
1580341062.973,134
1580341072.973,134
1580341082.973,134
1580341092.973,134
1580341102.973,134
1580341112.973,134
1580341122.973,134
1580341132.973,134
1580341142.973,135
1580341152.973,135
1580341162.973,135
1580341172.973,135
1580341182.973,135
1580341192.973,135
1580341202.973,135
1580341212.973,136
1580341222.973,136
1580341232.973,136
1580341242.973,136
1580341252.973,136
1580341262.973,136
1580341272.973,136
1580341282.973,136
1580341292.973,136
1580341302.973,137
1580341312.973,137
1580341322.973,137
1580341332.973,137
1580341342.973,137
1580341352.973,137
1580341362.973,138
1580341372.973,138
1580341382.973,138
1580341392.973,138
1580341402.973,138
1580341412.973,138
1580341422.973,139
1580341432.973,139
1580341442.973,139
1580341452.973,139
1580341462.973,139
1580341472.973,139
1580341482.973,140
1580341492.973,140
1580341502.973,140
1580341512.973,140
1580341522.973,140
1580341532.973,140
1580341542.973,141
1580341552.981,141
1580341562.973,141
1580341572.973,141
1580341582.973,141
1580341592.973,142
1580341602.973,142
1580341612.973,142
1580341622.973,142
1580341632.973,143
1580341642.981,143
1580341652.973,143
1580341662.973,143
1580341672.973,143
1580341682.973,144
1580341692.973,144
1580341702.973,144
1580341712.973,144
1580341722.973,144
1580341732.977,144
1580341742.973,145
1580341752.973,145
1580341762.973,145
1580341772.973,145
1580341782.973,145
1580341792.973,145
1580341802.973,146
1580341812.973,146
1580341822.973,146
1580341832.973,147
1580341842.973,147
1580341852.973,147
1580341862.973,147
1580341872.973,148
1580341882.973,148
1580341892.973,148
1580341902.973,149
1580341912.973,149
1580341922.973,149
1580341932.973,150
1580341942.973,150
1580341952.973,150
1580341962.973,150
1580341972.973,151
1580341982.973,151
1580341992.973,151
1580342002.973,151
1580342012.973,151
1580342022.973,151
1580342032.973,152
1580342042.973,152
1580342052.973,152
1580342062.973,153
1580342072.973,153
1580342082.973,153
1580342092.973,154
1580342102.973,154
1580342112.973,154
1580342122.973,154
1580342132.973,155
1580342142.973,155
1580342152.973,155
1580342162.973,156
1580342172.973,156
1580342182.973,156
1580342192.973,156
1580342202.973,156
1580342212.973,157
1580342222.973,157
1580342232.973,157
1580342242.973,157
1580342252.973,157
1580342262.973,157
1580342272.973,158
1580342282.973,158
1580342292.973,158
1580342302.973,158
1580342312.973,159
1580342322.973,159
1580342332.973,159
1580342342.973,160
1580342352.973,160
1580342362.973,160
1580342372.973,160
1580342382.973,161
1580342392.973,161
1580342402.973,162
1580342412.973,162
1580342422.973,162
1580342432.973,162
1580342442.973,162
1580342452.973,163
1580342462.973,163
1580342472.973,163
1580342482.973,163
1580342492.977,163
1580342502.973,163
1580342512.973,164
1580342522.977,164
1580342532.973,164
1580342542.973,164
1580342552.973,164
1580342562.973,164
1580342572.973,165
1580342582.973,165
1580342592.973,165
1580342602.973,165
1580342612.973,165
1580342622.973,165
1580342632.973,165
1580342642.973,165
1580342652.973,166
1580342662.973,166
1580342672.973,166
1580342682.973,166
1580342692.973,166
1580342702.973,166
1580342712.977,166
1580342722.973,166
1580342732.973,166
1580342742.973,166
1580342752.973,166
1580342762.973,166
1580342772.973,166
1580342782.973,166
1580342792.973,166
1580342802.973,166
1580342812.973,166
1580342822.973,166
1580342832.973,167
1580342842.973,167
1580342852.973,167
1580342862.973,167
