epoch,value
1579930262.147,249135
1579930272.125,249136
1579930282.123,249136
1579930292.123,249136
1579930302.124,249136
1579930312.124,249136
1579930322.123,249145
1579930332.123,249160
1579930342.123,249163
1579930352.123,249180
1579930362.123,249200
1579930372.123,249228
1579930382.124,249249
1579930392.123,249282
1579930402.123,249320
1579930412.125,249357
1579930422.123,249394
1579930432.123,249427
1579930442.125,249450
1579930452.124,249484
1579930462.123,249512
1579930472.123,249538
1579930482.123,249571
1579930492.124,249611
1579930502.124,249645
1579930512.123,249670
1579930522.123,249710
1579930532.124,249736
1579930542.124,249768
1579930552.123,249802
1579930562.123,249828
1579930572.123,249859
1579930582.124,249879
1579930592.123,249899
1579930602.123,249930
1579930612.123,249964
1579930622.123,250000
1579930632.124,250024
1579930642.123,250071
1579930652.124,250106
1579930662.124,250145
1579930672.123,250189
1579930682.123,250227
1579930692.123,250260
1579930702.123,250295
1579930712.123,250332
1579930722.123,250366
1579930732.123,250400
1579930742.123,250428
1579930752.124,250461
1579930762.123,250500
1579930772.123,250532
1579930782.123,250572
1579930792.123,250612
1579930802.124,250648
1579930812.123,250695
1579930822.123,250724
1579930832.123,250764
1579930842.123,250790
1579930852.123,250823
1579930862.124,250859
1579930872.124,250902
1579930882.129,250939
1579930892.124,250966
1579930902.123,250998
1579930912.123,251032
1579930922.123,251063
1579930932.123,251095
1579930942.123,251131
1579930952.123,251169
1579930962.123,251207
1579930972.123,251245
1579930982.123,251271
1579930992.123,251303
1579931002.123,251335
1579931012.123,251364
1579931022.123,251407
1579931032.123,251428
1579931042.123,251460
1579931052.123,251504
1579931062.123,251535
1579931072.123,251573
1579931082.124,251602
1579931092.123,251629
1579931102.123,251661
1579931112.123,251685
1579931122.123,251713
1579931132.126,251738
1579931142.123,251754
1579931152.123,251754
1579931162.123,251754
1579931172.123,251755
1579931182.123,251756
1579931192.123,251756
1579931202.123,251756
1579931212.123,251756
1579931222.123,251756
1579931232.123,251756
1579931242.123,251757
1579931252.125,251757
1579931262.123,251757
1579931272.123,251758
1579931282.123,251758
1579931292.123,251758
1579931302.123,251758
1579931312.124,251759
1579931322.123,251759
1579931332.123,251759
1579931342.123,251759
1579931352.125,251759
1579931362.123,251759
1579931372.123,251759
1579931382.123,251760
1579931392.124,251760
1579931402.123,251760
1579931412.123,251760
1579931422.123,251760
1579931432.123,251760
1579931442.124,251760
1579931452.123,251761
1579931462.124,251761
1579931472.123,251761
1579931482.124,251761
1579931492.125,251761
1579931502.123,251762
1579931512.124,251762
1579931522.123,251764
1579931532.126,251764
1579931542.123,251764
1579931552.123,251764
1579931562.124,251765
1579931572.125,251765
1579931582.123,251765
1579931592.123,251765
1579931602.124,251766
1579931612.125,251766
1579931622.123,251766
1579931632.123,251766
1579931642.123,251766
1579931652.123,251766
1579931662.123,251766
1579931672.123,251768
1579931682.123,251769
1579931692.123,251769
1579931702.124,251769
1579931712.123,251770
1579931722.123,251771
1579931732.123,251771
1579931742.123,251771
1579931752.123,251772
1579931762.123,251772
1579931772.124,251772
1579931782.123,251772
1579931792.124,251773
1579931802.123,251773
1579931812.126,251773
1579931822.123,251773
1579931832.123,251773
1579931842.124,251774
1579931852.123,251774
1579931862.123,251774
1579931872.123,251774
1579931882.124,251775
1579931892.126,251775
1579931902.123,251775
1579931912.123,251776
1579931922.123,251777
1579931932.123,251777
1579931942.123,251777
1579931952.123,251779
1579931962.123,251779
1579931972.123,251780
1579931982.124,251780
1579931992.124,251780
1579932002.125,251780
1579932012.124,251781
1579932022.123,251781
1579932032.123,251781
1579932042.126,251782
1579932052.123,251783
1579932062.123,251783
1579932072.123,251783
1579932082.123,251784
1579932092.123,251784
1579932102.123,251785
1579932112.123,251785
1579932122.123,251785
1579932132.124,251787
1579932142.123,251787
1579932152.124,251787
1579932162.124,251788
1579932172.123,251789
1579932182.123,251789
1579932192.123,251789
1579932202.124,251789
1579932212.123,251789
1579932222.124,251790
1579932232.123,251790
1579932242.123,251790
1579932252.124,251790
1579932262.124,251791
1579932272.123,251791
1579932282.123,251791
1579932292.123,251793
1579932302.123,251793
1579932312.123,251793
1579932322.123,251794
1579932332.123,251795
1579932342.124,251795
1579932352.124,251795
1579932362.123,251796
1579932372.123,251796
1579932382.123,251796
1579932392.123,251796
1579932402.123,251796
1579932412.125,251796
1579932422.124,251796
1579932432.123,251796
1579932442.123,251796
1579932452.123,251796
1579932462.123,251797
1579932472.123,251797
1579932482.123,251798
1579932492.123,251800
1579932502.126,251800
1579932512.123,251800
1579932522.125,251801
1579932532.123,251802
1579932542.124,251802
1579932552.123,251802
1579932562.123,251802
1579932572.123,251803
1579932582.123,251803
1579932592.123,251803
1579932602.124,251803
1579932612.123,251804
1579932622.124,251804
1579932632.125,251805
1579932642.124,251806
1579932652.123,251806
1579932662.123,251807
1579932672.123,251808
1579932682.125,251808
1579932692.123,251810
1579932702.124,251810
1579932712.123,251811
1579932722.123,251811
1579932732.123,251812
1579932742.123,251812
1579932752.123,251812
1579932762.124,251814
1579932772.124,251814
1579932782.124,251814
1579932792.123,251814
1579932802.123,251814
1579932812.123,251814
1579932822.124,251814
1579932832.123,251815
1579932842.123,251815
1579932852.123,251815
1579932862.124,251815
1579932872.126,251816
1579932882.123,251816
1579932892.123,251816
1579932902.123,251816
1579932912.123,251817
1579932922.123,251818
1579932932.123,251818
1579932942.124,251818
1579932952.124,251818
1579932962.123,251818
1579932972.124,251818
1579932982.125,251819
1579932992.123,251819
1579933002.123,251820
1579933012.125,251820
1579933022.123,251820
