epoch,value
1579891974.704,18619
1579891984.685,18619
1579891994.685,18619
1579892004.685,18619
1579892014.689,18619
1579892024.685,18619
1579892034.686,18619
1579892044.685,18619
1579892054.685,18619
1579892064.685,18619
1579892074.686,18619
1579892084.685,18619
1579892094.685,18619
1579892104.687,18619
1579892114.685,18619
1579892124.685,18619
1579892134.685,18619
1579892144.688,18619
1579892154.685,18619
1579892164.685,18619
1579892174.688,18619
1579892184.686,18619
1579892194.686,18619
1579892204.689,18619
1579892214.685,18619
1579892224.686,18619
1579892234.685,18619
1579892244.685,18620
1579892254.686,18620
1579892264.687,18620
1579892274.685,18620
1579892284.685,18620
1579892294.685,18620
1579892304.685,18620
1579892314.685,18620
1579892324.685,18620
1579892334.686,18620
1579892344.685,18620
1579892354.687,18620
1579892364.685,18620
1579892374.685,18620
1579892384.686,18620
1579892394.685,18620
1579892404.685,18620
1579892414.685,18620
1579892424.685,18620
1579892434.687,18620
1579892444.685,18620
1579892454.685,18620
1579892464.686,18620
1579892474.685,18620
1579892484.686,18620
1579892494.685,18620
1579892504.685,18620
1579892514.685,18620
1579892524.685,18620
1579892534.686,18620
1579892544.685,18620
1579892554.685,18621
1579892564.685,18621
1579892574.685,18621
1579892584.685,18621
1579892594.685,18621
1579892604.685,18621
1579892614.685,18622
1579892624.685,18622
1579892634.685,18622
1579892644.685,18622
1579892654.685,18622
1579892664.685,18622
1579892674.685,18622
1579892684.685,18622
1579892694.686,18622
1579892704.685,18622
1579892714.685,18622
1579892724.685,18622
1579892734.687,18622
1579892744.685,18622
1579892754.685,18622
1579892764.685,18622
1579892774.685,18622
1579892784.685,18622
1579892794.685,18622
1579892804.685,18622
1579892814.686,18622
1579892824.685,18622
1579892834.685,18622
1579892844.686,18622
1579892854.685,18622
1579892864.685,18622
1579892874.685,18622
1579892884.685,18623
1579892894.689,18623
1579892904.685,18623
1579892914.685,18623
1579892924.686,18623
1579892934.685,18623
1579892944.686,18623
1579892954.685,18623
1579892964.686,18623
1579892974.685,18623
1579892984.686,18623
1579892994.685,18623
1579893004.685,18623
1579893014.685,18623
1579893024.685,18623
1579893034.685,18623
1579893044.686,18623
1579893054.685,18623
1579893064.685,18623
1579893074.686,18623
1579893084.685,18623
1579893094.685,18623
1579893104.689,18623
1579893114.687,18623
1579893124.685,18623
1579893134.685,18623
1579893144.685,18623
1579893154.685,18623
1579893164.685,18623
1579893174.685,18623
1579893184.685,18623
1579893194.685,18623
1579893204.686,18623
1579893214.685,18623
1579893224.685,18623
1579893234.685,18624
1579893244.685,18624
1579893254.685,18624
1579893264.685,18624
1579893274.685,18624
1579893284.685,18624
1579893294.685,18624
1579893304.685,18624
1579893314.685,18624
1579893324.685,18624
1579893334.687,18625
1579893344.686,18625
1579893354.685,18625
1579893364.685,18625
1579893374.685,18625
1579893384.685,18625
1579893394.685,18625
1579893404.685,18625
1579893414.688,18625
1579893424.685,18625
1579893434.685,18625
1579893444.685,18625
1579893454.685,18625
1579893464.685,18626
1579893474.685,18627
1579893484.685,18627
1579893494.685,18627
1579893504.685,18628
1579893514.685,18628
1579893524.685,18628
1579893534.685,18628
1579893544.685,18628
1579893554.685,18628
1579893564.685,18628
1579893574.689,18628
1579893584.688,18628
1579893594.685,18628
1579893604.686,18629
1579893614.685,18629
1579893624.685,18629
1579893634.685,18629
1579893644.685,18630
1579893654.685,18630
1579893664.686,18630
1579893674.685,18630
1579893684.685,18630
1579893694.685,18630
1579893704.687,18630
1579893714.686,18630
1579893724.685,18630
1579893734.685,18630
1579893744.686,18630
1579893754.685,18630
1579893764.685,18630
1579893774.685,18630
1579893784.688,18630
1579893794.685,18630
1579893804.685,18631
1579893814.685,18631
1579893824.686,18631
1579893834.685,18631
1579893844.685,18631
1579893854.685,18631
1579893864.685,18631
1579893874.685,18631
1579893884.685,18631
1579893894.685,18631
1579893904.685,18631
1579893914.685,18631
1579893924.685,18631
1579893934.685,18631
1579893944.685,18631
1579893954.685,18631
1579893964.685,18633
1579893974.686,18633
1579893984.685,18633
1579893994.685,18633
1579894004.685,18634
1579894014.685,18634
1579894024.685,18634
1579894034.685,18634
1579894044.685,18634
1579894054.685,18634
1579894064.685,18634
1579894074.686,18634
1579894084.685,18634
1579894094.685,18634
1579894104.685,18635
1579894114.685,18636
1579894124.685,18636
1579894134.685,18636
1579894144.685,18636
1579894154.686,18636
1579894164.685,18636
1579894174.685,18636
1579894184.685,18637
1579894194.687,18637
1579894204.685,18637
1579894214.685,18637
1579894224.689,18637
1579894234.685,18637
1579894244.685,18637
1579894254.685,18637
1579894264.686,18637
1579894274.685,18637
1579894284.685,18638
1579894294.685,18638
1579894304.685,18638
1579894314.685,18638
1579894324.686,18639
1579894334.688,18639
1579894344.685,18639
1579894354.685,18639
1579894364.685,18639
1579894374.685,18639
1579894384.685,18639
1579894394.687,18639
1579894404.685,18639
1579894414.685,18639
1579894424.685,18639
1579894434.685,18640
1579894444.685,18640
1579894454.687,18640
1579894464.687,18640
1579894474.685,18640
1579894484.687,18640
1579894494.685,18640
1579894504.685,18640
1579894514.686,18640
1579894524.685,18640
1579894534.685,18640
1579894544.685,18640
1579894554.685,18640
1579894564.685,18640
1579894574.686,18640
1579894584.685,18640
1579894594.685,18640
1579894604.685,18640
1579894614.685,18640
1579894624.685,18640
1579894634.685,18640
1579894644.687,18640
1579894654.685,18640
1579894664.685,18640
1579894674.686,18640
1579894684.685,18640
1579894694.685,18640
1579894704.686,18640
1579894714.685,18640
1579894724.685,18640
1579894734.685,18640
