epoch,value
1580598004.837,13
1580598014.837,13
1580598024.837,13
1580598034.837,13
1580598044.837,13
1580598054.837,13
1580598064.837,13
1580598074.837,14
1580598084.837,14
1580598094.837,14
1580598104.837,14
1580598114.837,14
1580598124.837,14
1580598134.837,14
1580598144.837,14
1580598154.837,14
1580598164.837,14
1580598174.837,14
1580598184.837,14
1580598194.837,14
1580598204.837,14
1580598214.837,14
1580598224.837,14
1580598234.837,14
1580598244.837,14
1580598254.837,14
1580598264.837,14
1580598274.837,14
1580598284.837,15
1580598294.837,15
1580598304.837,15
1580598314.837,15
1580598324.837,15
1580598334.837,15
1580598344.837,15
1580598354.837,15
1580598364.837,15
1580598374.837,15
1580598384.837,15
1580598394.837,15
1580598404.837,15
1580598414.837,15
1580598424.837,15
1580598434.837,15
1580598444.837,15
1580598454.837,15
1580598464.837,15
1580598474.837,15
1580598484.837,15
1580598494.837,15
1580598504.837,15
1580598514.837,16
1580598524.837,16
1580598534.837,16
1580598544.837,16
1580598554.837,16
1580598564.837,16
1580598574.837,16
1580598584.837,16
1580598594.837,16
1580598604.837,16
1580598614.837,16
1580598624.837,16
1580598634.837,16
1580598644.837,16
1580598654.837,16
1580598664.837,16
1580598674.837,17
1580598684.837,17
1580598694.837,17
1580598704.837,17
1580598714.837,17
1580598724.837,17
1580598734.837,17
1580598744.837,17
1580598754.837,17
1580598764.837,17
1580598774.837,17
1580598784.837,17
1580598794.837,17
1580598804.837,17
1580598814.837,17
1580598824.837,17
1580598834.837,17
1580598844.837,17
1580598854.837,17
1580598864.837,17
1580598874.837,17
1580598884.837,17
1580598894.837,17
1580598904.837,17
1580598914.837,17
1580598924.837,17
1580598934.837,17
1580598944.837,17
1580598954.837,17
1580598964.837,17
1580598974.837,17
1580598984.837,17
1580598994.837,17
1580599004.837,17
1580599014.837,18
1580599024.837,18
1580599034.837,18
1580599044.837,18
1580599054.837,18
1580599064.837,18
1580599074.837,18
1580599084.837,18
1580599094.837,18
1580599104.837,18
1580599114.837,18
1580599124.837,18
1580599134.837,18
1580599144.837,18
1580599154.837,18
1580599164.837,18
1580599174.837,18
1580599184.837,18
1580599194.837,18
1580599204.837,18
1580599214.837,18
1580599234.837,19
1580599244.837,19
1580599254.837,19
1580599264.837,19
1580599274.837,19
1580599284.838,19
1580599294.837,19
1580599304.837,19
1580599314.837,19
1580599324.837,19
1580599334.837,19
1580599344.837,19
1580599354.837,19
1580599364.837,19
1580599374.837,19
1580599384.837,19
1580599394.837,19
1580599404.837,19
1580599414.837,19
1580599424.837,19
1580599434.837,19
1580599444.837,19
1580599454.837,19
1580599464.837,19
1580599474.837,19
1580599484.837,19
1580599494.837,19
1580599504.837,19
1580599514.837,20
1580599524.837,20
1580599534.837,20
1580599544.837,20
1580599554.837,20
1580599564.837,20
1580599574.837,20
1580599584.838,20
1580599594.837,20
1580599604.837,20
1580599614.837,20
1580599624.837,20
1580599634.837,20
1580599644.837,20
1580599654.837,20
1580599664.837,20
1580599674.837,20
1580599684.837,20
1580599694.837,20
1580599704.837,20
1580599714.837,20
1580599724.837,20
1580599734.837,20
1580599744.837,20
1580599754.837,20
1580599764.837,20
1580599774.837,20
1580599784.837,20
1580599794.837,21
1580599804.837,21
1580599814.837,21
1580599824.837,21
1580599834.837,21
1580599844.837,21
1580599854.837,21
1580599864.837,21
1580599874.837,21
1580599884.837,21
1580599894.837,21
1580599904.837,21
1580599914.837,21
1580599924.837,21
1580599934.837,21
1580599944.837,21
1580599954.837,21
1580599964.837,21
1580599974.837,21
1580599984.837,21
1580599994.837,21
1580600004.837,21
1580600014.837,21
1580600024.837,21
1580600034.837,21
1580600044.837,22
1580600064.837,22
1580600074.837,22
1580600084.837,22
1580600094.837,22
1580600104.837,22
1580600114.837,22
1580600124.837,22
1580600134.838,22
1580600144.837,22
1580600154.837,22
1580600164.837,22
1580600174.837,22
1580600184.837,22
1580600194.837,22
1580600204.837,22
1580600214.837,22
1580600224.837,22
1580600234.837,22
1580600244.837,22
1580600254.837,22
1580600264.837,22
1580600274.837,22
1580600284.837,22
1580600294.837,22
1580600304.837,22
1580600314.837,22
1580600324.837,22
1580600334.837,22
1580600344.837,22
1580600354.837,23
1580600364.837,23
1580600374.837,23
1580600384.837,23
1580600394.837,23
1580600404.837,23
1580600414.837,23
1580600424.837,23
1580600434.837,23
1580600444.837,23
1580600454.837,24
1580600464.837,24
1580600474.837,24
1580600484.837,24
1580600494.837,24
1580600504.837,24
1580600514.837,24
1580600524.837,24
1580600534.837,24
1580600544.837,24
1580600554.837,24
1580600564.837,24
1580600574.837,24
1580600584.837,24
1580600594.837,24
1580600604.837,24
1580600614.837,24
1580600624.837,24
1580600634.837,24
1580600644.837,24
1580600654.837,24
1580600664.837,24
1580600674.837,24
1580600684.837,24
1580600694.838,25
1580600704.837,25
1580600714.837,25
1580600724.837,25
1580600734.837,25
1580600744.837,25
1580600754.838,25
1580600764.837,25
1580600774.837,25
1580600784.839,25
1580600794.837,25
1580600804.837,25
1580600814.838,25
1580600824.837,25
1580600834.837,25
1580600844.837,25
1580600854.837,25
1580600864.837,25
1580600874.837,25
1580600884.837,26
1580600894.837,26
1580600904.837,26
1580600914.837,26
1580600924.837,26
1580600934.837,26
1580600944.837,26
1580600954.837,26
1580600964.837,26
1580600974.837,26
1580600984.837,26
1580600994.837,26
1580601004.837,27
1580601014.837,27
1580601024.837,27
1580601034.837,27
1580601044.837,27
1580601054.837,27
1580601064.837,27
1580601074.837,27
1580601084.838,27
1580601094.837,27
1580601104.837,27
1580601114.837,27
1580601124.837,27
1580601134.837,27
1580601144.837,27
1580601154.837,27
1580601164.837,27
1580601174.837,27
1580601184.837,28
1580601194.837,28
1580601204.837,28
1580601214.837,28
1580601224.837,28
1580601234.837,28
1580601244.837,28
1580601254.837,28
1580601264.837,28
1580601274.837,28
1580601284.837,28
1580601294.837,28
1580601304.837,28
1580601314.837,29
1580601324.837,29
1580601334.837,29
1580601344.837,29
1580601354.837,29
1580601364.837,29
1580601374.837,29
1580601384.837,29
1580601394.837,29
1580601404.837,29
1580601414.837,29
1580601424.837,29
1580601434.837,29
1580601444.837,29
1580601454.837,29
1580601464.837,29
1580601474.837,29
1580601484.837,30
1580601494.837,30
1580601504.837,30
1580601514.837,30
1580601524.837,30
1580601534.837,30
1580601544.837,30
1580601554.837,30
1580601564.837,30
1580601574.837,30
1580601584.837,30
1580601594.837,30
1580601604.837,30
1580601614.837,30
1580601624.837,30
1580601634.837,30
1580601644.837,30
1580601654.837,30
1580601664.838,30
1580601674.837,30
1580601684.837,30
1580601694.837,30
1580601704.837,30
1580601714.837,30
1580601724.837,30
1580601734.837,30
1580601744.837,30
1580601754.837,30
1580601764.837,30
1580601774.837,30
1580601784.837,31
1580601794.837,31
1580601804.837,31
1580601814.837,31
1580601824.837,31
1580601834.837,31
1580601844.837,31
1580601864.837,31
1580601874.837,31
1580601884.837,31
1580601894.837,31
1580601904.837,31
1580601914.837,32
1580601924.837,32
1580601934.837,32
1580601944.837,32
1580601964.837,32
1580601974.837,32
1580601984.837,32
1580601994.837,32
1580602004.837,32
1580602014.837,32
1580602024.837,32
1580602034.837,32
1580602044.837,32
1580602054.837,32
1580602064.837,32
1580602074.837,32
1580602084.838,32
1580602094.837,32
1580602104.837,32
1580602114.837,32
1580602124.837,32
1580602134.837,32
1580602144.837,32
1580602154.837,32
1580602164.837,32
1580602174.837,32
1580602184.837,32
1580602194.837,32
1580602204.837,32
1580602214.837,32
1580602224.837,32
1580602234.837,32
1580602244.837,32
1580602254.837,32
1580602264.837,33
1580602274.837,33
1580602284.837,33
1580602294.837,33
1580602304.837,33
1580602314.837,33
1580602324.837,33
1580602334.837,33
1580602344.837,33
1580602354.837,33
1580602364.837,33
1580602374.837,33
1580602384.837,33
1580602394.837,33
1580602414.837,33
1580602424.837,33
1580602434.837,33
1580602444.838,33
1580602454.837,33
1580602464.837,33
1580602474.837,33
1580602484.837,33
1580602494.837,33
1580602504.837,33
1580602514.837,33
1580602524.837,33
1580602534.837,33
1580602544.837,33
1580602554.837,33
1580602564.837,33
1580602574.837,33
1580602584.837,33
1580602594.837,33
1580602604.837,33
1580602614.837,33
1580602624.837,33
1580602634.837,33
1580602644.837,33
1580602654.837,33
1580602664.837,34
1580602674.837,34
1580602684.837,34
1580602694.837,34
1580602704.837,34
1580602714.837,34
1580602724.837,34
1580602734.837,34
1580602744.837,34
1580602754.837,34
1580602764.837,34
1580602774.838,34
1580602784.838,34
1580602794.837,34
1580602804.837,34
1580602824.837,34
1580602834.837,34
1580602844.837,34
1580602854.837,34
1580602864.837,34
1580602874.837,34
1580602884.837,34
1580602894.837,34
1580602904.837,34
1580602914.837,34
1580602924.838,34
1580602934.837,35
1580602944.837,35
1580602954.837,35
1580602964.837,35
1580602974.837,35
1580602984.837,35
1580602994.837,35
1580603004.837,35
1580603014.837,35
1580603024.837,35
1580603034.837,35
1580603044.837,35
1580603054.837,35
1580603064.837,35
1580603074.837,35
1580603084.837,35
1580603094.837,36
