epoch,value
1579927269.495,51412
1579927279.470,51412
1579927289.470,51412
1579927299.470,51412
1579927309.470,51412
1579927319.470,51412
1579927329.470,51412
1579927339.470,51412
1579927349.470,51412
1579927359.470,51412
1579927369.470,51412
1579927379.470,51412
1579927389.470,51412
1579927399.470,51412
1579927409.470,51412
1579927419.470,51412
1579927429.470,51412
1579927439.470,51412
1579927449.470,51412
1579927459.470,51412
1579927469.470,51412
1579927479.470,51412
1579927489.470,51412
1579927499.470,51412
1579927509.470,51414
1579927519.470,51414
1579927529.470,51414
1579927539.470,51414
1579927549.470,51414
1579927559.470,51414
1579927569.470,51414
1579927579.470,51414
1579927589.470,51415
1579927599.470,51415
1579927609.470,51415
1579927619.470,51415
1579927629.470,51415
1579927639.470,51415
1579927649.471,51415
1579927659.470,51415
1579927669.470,51415
1579927679.470,51415
1579927689.470,51415
1579927699.470,51415
1579927709.470,51415
1579927719.471,51415
1579927729.470,51415
1579927739.470,51415
1579927749.470,51416
1579927759.471,51416
1579927769.470,51416
1579927779.470,51416
1579927789.470,51416
1579927799.470,51416
1579927809.470,51416
1579927819.470,51416
1579927829.470,51416
1579927839.471,51416
1579927849.470,51416
1579927859.470,51416
1579927869.470,51416
1579927879.470,51416
1579927889.470,51416
1579927899.470,51416
1579927909.470,51416
1579927919.472,51416
1579927929.471,51416
1579927939.471,51416
1579927949.470,51416
1579927959.470,51416
1579927969.470,51416
1579927979.470,51416
1579927989.470,51416
1579927999.470,51416
1579928009.470,51416
1579928019.470,51416
1579928029.472,51416
1579928039.470,51416
1579928049.470,51416
1579928059.470,51416
1579928069.472,51416
1579928079.470,51416
1579928089.470,51416
1579928099.470,51416
1579928109.470,51416
1579928119.470,51416
1579928129.470,51416
1579928139.470,51417
1579928149.470,51419
1579928159.470,51419
1579928169.470,51419
1579928179.472,51419
1579928189.470,51419
1579928199.470,51419
1579928209.470,51419
1579928219.470,51419
1579928229.473,51419
1579928239.470,51419
1579928249.470,51419
1579928259.470,51419
1579928269.471,51419
1579928279.471,51419
1579928289.470,51419
1579928299.470,51419
1579928309.470,51419
1579928319.470,51419
1579928329.470,51419
1579928339.470,51419
1579928349.470,51419
1579928359.470,51419
1579928369.470,51419
1579928379.470,51419
1579928389.470,51419
1579928399.470,51419
1579928409.470,51419
1579928419.470,51419
1579928429.470,51419
1579928439.470,51419
1579928449.470,51419
1579928459.470,51419
1579928469.470,51419
1579928479.470,51419
1579928489.470,51420
1579928499.470,51420
1579928509.470,51421
1579928519.470,51422
1579928529.470,51422
1579928539.470,51422
1579928549.470,51422
1579928559.470,51422
1579928569.470,51424
1579928579.470,51425
1579928589.470,51426
1579928599.471,51426
1579928609.470,51426
1579928619.471,51426
1579928629.470,51426
1579928639.470,51426
1579928649.470,51426
1579928659.470,51426
1579928669.470,51426
1579928679.470,51426
1579928689.470,51426
1579928699.470,51426
1579928709.470,51426
1579928719.470,51426
1579928729.470,51426
1579928739.470,51426
1579928749.470,51427
1579928759.470,51427
1579928769.470,51427
1579928779.470,51427
1579928789.473,51427
1579928799.470,51427
1579928809.470,51427
1579928819.470,51427
1579928829.470,51427
1579928839.470,51427
1579928849.470,51427
1579928859.470,51427
1579928869.470,51427
1579928879.470,51427
1579928889.470,51427
1579928899.470,51427
1579928909.470,51427
1579928919.470,51427
1579928929.470,51427
1579928939.470,51427
1579928949.470,51427
1579928959.470,51427
1579928969.470,51427
1579928979.470,51427
1579928989.470,51427
1579928999.470,51427
1579929009.470,51427
1579929019.470,51427
1579929029.470,51427
1579929039.473,51428
1579929049.470,51429
1579929059.470,51432
1579929069.470,51432
1579929079.470,51432
1579929089.470,51432
1579929099.470,51432
1579929109.470,51432
1579929119.470,51432
1579929129.470,51432
1579929139.470,51432
1579929149.471,51432
1579929159.470,51432
1579929169.470,51432
1579929179.470,51432
1579929189.470,51432
1579929199.470,51432
1579929209.470,51432
1579929219.470,51432
1579929229.470,51432
1579929239.470,51432
1579929249.470,51432
1579929259.473,51432
1579929269.472,51432
1579929279.470,51432
1579929289.470,51432
1579929299.472,51432
1579929309.470,51432
1579929319.470,51432
1579929329.470,51432
1579929339.470,51432
1579929349.470,51432
1579929359.470,51432
1579929369.470,51432
1579929379.470,51432
1579929389.470,51432
1579929399.470,51432
1579929409.470,51432
1579929419.471,51432
1579929429.470,51432
1579929439.470,51432
1579929449.470,51432
1579929459.470,51432
1579929469.474,51432
1579929479.470,51432
1579929489.470,51432
1579929499.470,51432
1579929509.471,51432
1579929519.470,51432
1579929529.470,51433
1579929539.473,51433
1579929549.471,51433
1579929559.471,51433
1579929569.470,51433
1579929579.471,51433
1579929589.470,51433
1579929599.470,51434
1579929609.470,51434
1579929619.470,51434
1579929629.470,51434
1579929639.470,51435
1579929649.470,51435
1579929659.470,51435
1579929669.470,51435
1579929679.470,51435
1579929689.470,51436
1579929699.470,51439
1579929709.470,51439
1579929719.470,51439
1579929729.472,51439
1579929739.470,51439
1579929749.470,51439
1579929759.470,51439
1579929769.470,51440
1579929779.470,51441
1579929789.470,51441
1579929799.470,51441
1579929809.470,51441
1579929819.470,51441
1579929829.470,51441
1579929839.470,51441
1579929849.470,51441
1579929859.470,51441
1579929869.473,51441
1579929879.470,51441
1579929889.471,51441
1579929899.470,51441
1579929909.470,51442
1579929919.471,51442
1579929929.470,51442
1579929939.470,51442
1579929949.470,51442
1579929959.470,51442
1579929969.470,51442
1579929979.470,51442
1579929989.470,51442
1579929999.470,51442
1579930009.470,51442
1579930019.470,51442
1579930029.470,51442
