epoch,value
1580237625.413,19509
1580237635.394,19509
1580237645.395,19509
1580237655.394,19509
1580237665.395,19509
1580237675.394,19509
1580237685.395,19509
1580237695.394,19509
1580237705.394,19509
1580237715.396,19509
1580237725.394,19509
1580237735.395,19509
1580237745.394,19509
1580237755.394,19509
1580237765.394,19509
1580237775.394,19509
1580237785.394,19509
1580237795.394,19509
1580237805.396,19509
1580237815.394,19509
1580237825.394,19509
1580237835.396,19509
1580237845.394,19509
1580237855.394,19509
1580237865.394,19509
1580237875.394,19509
1580237885.394,19509
1580237895.394,19509
1580237905.394,19509
1580237915.394,19509
1580237925.394,19509
1580237935.394,19509
1580237945.394,19509
1580237955.394,19509
1580237965.394,19509
1580237975.394,19509
1580237985.396,19509
1580237995.394,19509
1580238005.394,19509
1580238015.394,19509
1580238025.394,19509
1580238035.394,19509
1580238045.394,19509
1580238055.394,19509
1580238065.394,19509
1580238075.394,19509
1580238085.394,19509
1580238095.394,19509
1580238105.394,19509
1580238115.394,19509
1580238125.394,19509
1580238135.394,19509
1580238145.394,19509
1580238155.394,19509
1580238165.394,19509
1580238175.395,19509
1580238185.394,19509
1580238195.394,19509
1580238205.394,19509
1580238215.394,19509
1580238225.394,19509
1580238235.394,19509
1580238245.394,19509
1580238255.394,19509
1580238265.394,19509
1580238275.394,19509
1580238285.394,19509
1580238295.394,19509
1580238305.394,19509
1580238315.394,19509
1580238325.394,19509
1580238335.396,19510
1580238345.394,19510
1580238355.394,19510
1580238365.394,19510
1580238375.395,19510
1580238385.395,19510
1580238395.394,19511
1580238405.394,19511
1580238415.394,19511
1580238425.394,19511
1580238435.394,19511
1580238445.394,19511
1580238455.394,19511
1580238465.394,19511
1580238475.394,19511
1580238485.394,19511
1580238495.394,19511
1580238505.394,19511
1580238515.394,19511
1580238525.394,19511
1580238535.395,19511
1580238545.394,19512
1580238555.395,19512
1580238565.394,19512
1580238575.394,19512
1580238585.394,19512
1580238595.395,19512
1580238605.395,19512
1580238615.394,19512
1580238625.394,19512
1580238635.394,19512
1580238645.394,19512
1580238655.394,19512
1580238665.394,19512
1580238675.394,19512
1580238685.394,19512
1580238695.395,19512
1580238705.394,19512
1580238715.394,19512
1580238725.394,19512
1580238735.394,19512
1580238745.395,19512
1580238755.397,19512
1580238765.394,19512
1580238775.394,19512
1580238785.394,19512
1580238795.394,19512
1580238805.394,19512
1580238815.395,19512
1580238825.394,19512
1580238835.394,19512
1580238845.394,19512
1580238855.394,19512
1580238865.394,19512
1580238875.394,19512
1580238885.394,19512
1580238895.394,19512
1580238905.395,19512
1580238915.394,19512
1580238925.394,19512
1580238935.394,19512
1580238945.394,19512
1580238955.394,19512
1580238965.394,19512
1580238975.394,19512
1580238985.394,19512
1580238995.394,19512
1580239005.394,19512
1580239015.394,19512
1580239025.397,19512
1580239035.394,19512
1580239045.394,19512
1580239055.394,19512
