epoch,value
1580692203.212,0
1580692213.212,0
1580692223.212,0
1580692233.212,0
1580692243.212,0
1580692253.213,0
1580692263.212,0
1580692273.212,0
1580692283.212,0
1580692293.213,1
1580692303.212,1
1580692313.212,1
1580692323.213,1
1580692333.213,1
1580692343.212,1
1580692353.212,1
1580692363.212,1
1580692373.212,1
1580692383.212,1
1580692393.212,1
1580692403.213,1
1580692423.213,1
1580692433.212,1
1580692443.212,2
1580692453.212,2
1580692463.212,2
1580692473.213,2
1580692483.212,2
1580692493.212,2
1580692503.212,2
1580692513.213,2
1580692523.212,2
1580692533.212,2
1580692543.212,2
1580692563.212,3
1580692573.212,3
1580692583.212,3
1580692593.212,3
1580692603.213,3
1580692613.212,3
1580692623.212,3
1580692633.213,3
1580692643.212,3
1580692653.212,3
1580692663.212,3
1580692673.212,3
1580692683.212,3
1580692693.212,4
1580692703.212,4
1580692713.212,4
1580692723.212,4
1580692733.212,4
1580692743.212,4
1580692753.212,4
1580692763.212,4
1580692773.212,4
1580692783.212,4
1580692793.212,5
1580692803.212,5
1580692813.212,5
1580692823.212,5
1580692833.212,5
1580692843.212,5
1580692853.212,5
1580692863.212,5
1580692873.212,5
1580692883.212,5
1580692893.212,5
1580692903.212,5
1580692913.212,5
1580692923.212,5
1580692933.212,5
1580692943.212,5
1580692953.212,6
1580692963.212,6
1580692973.212,6
1580692983.212,6
1580692993.212,6
1580693003.212,6
1580693013.212,6
1580693023.213,6
1580693033.212,6
1580693043.212,6
1580693053.212,6
1580693063.212,6
1580693073.212,6
1580693083.212,6
1580693093.212,6
1580693103.212,6
1580693113.212,6
1580693123.212,6
1580693133.212,6
1580693143.212,6
1580693153.212,6
1580693163.212,6
1580693173.212,7
1580693183.212,7
1580693193.212,7
1580693203.212,7
1580693213.212,7
1580693223.212,7
1580693233.212,7
1580693243.212,7
1580693253.212,7
1580693263.212,7
1580693273.212,7
1580693283.212,7
1580693293.213,7
1580693303.212,8
1580693313.212,8
1580693323.212,8
1580693333.212,8
1580693343.212,8
1580693353.212,8
1580693363.212,8
1580693373.212,8
1580693383.212,8
1580693393.212,8
1580693403.212,8
1580693413.212,8
1580693423.212,8
1580693433.212,8
1580693443.212,8
1580693453.212,8
1580693463.212,9
1580693473.212,9
1580693483.212,9
1580693493.212,9
1580693503.212,9
1580693513.212,9
1580693523.212,9
1580693533.212,9
1580693543.213,9
1580693553.213,9
1580693563.213,9
1580693573.213,9
1580693583.212,9
1580693593.212,9
1580693603.212,9
1580693613.212,9
1580693623.212,10
1580693633.212,10
1580693643.213,10
1580693653.212,10
1580693663.212,10
1580693673.212,10
1580693683.212,10
1580693693.212,10
1580693703.212,10
1580693713.212,10
1580693723.212,11
1580693733.212,11
1580693743.212,11
1580693753.212,11
1580693763.213,11
1580693773.212,11
1580693783.212,11
1580693793.212,11
1580693803.212,11
1580693813.212,11
1580693823.212,11
1580693833.212,11
1580693843.212,11
1580693853.212,12
1580693863.212,12
1580693873.212,12
1580693883.212,12
1580693893.213,12
1580693903.212,12
1580693913.212,12
1580693923.212,12
1580693933.212,12
1580693943.212,12
1580693953.212,12
1580693963.212,12
1580693983.213,12
1580693993.212,12
1580694003.212,13
1580694013.212,13
1580694023.212,13
1580694033.212,13
1580694043.212,13
1580694053.212,13
1580694063.212,13
1580694073.212,13
1580694083.212,13
1580694093.212,13
1580694103.212,13
1580694113.212,13
1580694123.217,13
1580694133.212,13
1580694143.212,13
1580694153.212,14
1580694163.212,14
1580694173.213,14
1580694183.212,14
1580694193.212,14
1580694203.212,14
1580694213.212,14
1580694223.213,14
1580694233.212,14
1580694243.212,14
1580694253.212,14
1580694263.212,14
1580694273.212,14
1580694283.215,14
1580694293.212,14
1580694303.212,14
1580694313.212,14
1580694323.212,14
1580694333.212,14
1580694343.212,14
1580694353.212,15
1580694363.212,15
1580694373.212,15
1580694383.212,15
1580694393.212,15
1580694403.212,15
1580694413.212,15
1580694423.212,15
1580694433.212,15
1580694443.212,15
1580694453.212,15
1580694463.212,15
1580694473.212,15
1580694483.212,15
1580694493.212,15
1580694503.212,15
1580694513.212,15
1580694523.212,16
1580694533.212,16
1580694543.212,16
1580694553.212,16
1580694563.212,16
1580694573.212,16
1580694583.212,16
1580694593.212,16
1580694603.212,16
1580694613.212,16
1580694623.212,16
1580694633.212,16
1580694643.212,16
1580694653.212,16
1580694663.212,16
1580694673.212,16
1580694683.213,16
1580694693.213,16
1580694703.212,16
1580694713.213,17
1580694723.212,17
1580694733.212,17
1580694743.212,17
1580694753.212,17
1580694763.212,17
1580694773.212,17
1580694783.212,17
1580694793.212,17
1580694803.212,17
1580694813.212,17
1580694823.212,17
1580694833.212,17
1580694843.217,17
1580694853.212,17
1580694863.212,17
1580694873.212,17
1580694883.212,17
1580694893.212,18
1580694903.212,18
1580694913.212,18
1580694923.212,18
1580694933.212,18
1580694943.212,18
1580694953.212,18
1580694963.212,18
1580694973.212,18
1580694983.212,18
1580694993.213,18
1580695003.213,18
1580695013.212,18
1580695023.212,18
1580695033.213,18
1580695043.212,19
1580695053.212,19
1580695063.212,19
1580695073.212,19
1580695083.212,19
1580695103.212,19
1580695113.212,19
1580695123.212,19
1580695133.212,19
1580695143.212,19
1580695153.212,19
1580695163.212,19
1580695173.212,19
1580695183.212,19
1580695193.212,20
1580695203.212,20
1580695213.212,20
1580695223.213,20
1580695233.212,20
1580695243.212,20
1580695253.212,20
1580695263.212,20
1580695273.212,20
1580695283.213,20
1580695293.212,21
1580695303.212,21
1580695313.212,21
1580695323.212,21
1580695333.212,21
1580695343.212,21
1580695353.212,21
1580695363.212,21
1580695373.212,21
1580695383.212,21
1580695393.212,21
1580695403.212,21
1580695413.212,21
1580695423.212,21
1580695433.212,22
1580695443.212,22
1580695453.212,22
1580695463.212,22
1580695473.212,22
1580695483.212,22
1580695493.212,22
1580695503.212,22
1580695513.212,22
1580695523.212,22
1580695533.212,22
1580695553.213,22
1580695563.212,22
1580695573.212,22
1580695583.212,22
1580695593.213,23
1580695603.212,23
1580695613.212,23
1580695623.212,23
1580695633.212,23
1580695653.213,23
1580695663.212,23
1580695673.212,23
1580695683.212,23
1580695693.212,23
1580695703.212,23
1580695713.212,23
1580695723.212,24
1580695733.212,24
1580695743.212,24
1580695753.212,24
1580695763.212,24
1580695773.212,24
1580695783.212,24
1580695793.212,24
1580695803.212,24
1580695813.212,24
1580695823.212,24
1580695833.212,24
1580695843.212,24
1580695853.212,24
1580695863.212,24
1580695873.212,24
1580695883.212,24
1580695893.212,24
1580695903.212,24
1580695913.212,25
1580695933.212,25
1580695943.212,25
1580695953.212,25
1580695963.216,25
1580695973.212,25
1580695983.212,25
1580695993.212,25
1580696003.212,25
1580696013.212,25
1580696023.212,25
1580696033.212,25
1580696043.212,25
1580696053.212,25
1580696063.212,25
1580696073.212,25
1580696083.212,25
1580696093.212,25
1580696103.212,25
1580696113.212,25
1580696123.213,25
1580696133.212,25
1580696143.212,25
1580696153.212,26
1580696163.212,26
1580696173.212,26
1580696183.212,26
1580696193.213,26
1580696203.212,26
1580696213.212,26
1580696223.213,26
1580696233.212,26
1580696243.212,26
1580696253.212,26
1580696263.212,26
1580696273.212,26
1580696283.212,26
1580696293.213,26
1580696303.213,26
1580696313.212,26
1580696323.212,27
1580696333.212,27
1580696343.212,27
1580696353.212,27
1580696363.213,27
1580696383.212,27
1580696393.212,27
1580696403.213,27
1580696413.213,27
1580696423.212,27
1580696433.213,27
1580696443.212,27
1580696453.212,27
1580696463.212,27
1580696473.212,27
1580696483.212,27
1580696493.212,28
1580696503.212,28
1580696513.212,28
1580696523.212,28
1580696533.212,28
1580696543.212,28
1580696553.212,28
1580696563.212,28
1580696573.212,28
1580696583.212,28
1580696593.212,28
1580696603.212,29
1580696613.213,29
1580696623.212,29
1580696633.212,29
1580696643.212,29
1580696653.212,29
1580696663.212,29
1580696673.212,29
1580696693.212,29
1580696703.212,30
1580696713.212,30
1580696723.212,30
1580696743.212,30
1580696753.212,30
1580696763.212,30
1580696773.212,30
1580696783.212,30
1580696793.213,30
1580696803.212,30
1580696813.212,30
1580696823.212,30
1580696833.212,31
1580696843.212,31
1580696853.212,31
1580696873.212,31
1580696883.212,31
1580696893.212,31
1580696913.212,31
1580696923.212,31
1580696933.212,31
1580696943.212,31
1580696953.212,31
1580696963.212,31
1580696973.212,31
1580696983.213,31
1580696993.212,31
1580697003.212,31
1580697013.212,31
1580697023.212,32
1580697033.212,32
1580697043.212,32
1580697053.212,32
1580697063.212,32
1580697073.212,32
1580697083.212,32
1580697093.212,32
1580697103.212,32
1580697113.212,32
1580697133.212,33
1580697143.212,33
1580697153.212,33
1580697163.212,33
1580697173.212,33
1580697183.212,33
1580697193.212,33
1580697203.212,33
1580697213.212,33
1580697223.213,34
1580697233.212,34
1580697243.212,34
1580697253.212,34
1580697263.212,34
1580697273.212,34
1580697283.212,34
1580697293.212,34
1580697303.212,34
1580697313.212,34
1580697323.212,34
1580697333.212,34
1580697343.212,34
1580697353.212,34
1580697363.212,35
1580697373.212,35
1580697383.212,35
1580697393.212,35
1580697403.212,35
1580697413.212,35
1580697423.212,35
1580697433.212,35
1580697443.212,35
1580697453.212,35
1580697463.212,35
1580697473.212,35
1580697483.212,35
1580697493.212,35
1580697503.213,35
1580697513.212,36
1580697523.212,36
1580697533.212,36
1580697543.212,36
1580697553.212,36
1580697563.212,36
1580697573.213,36
1580697583.212,36
1580697593.212,36
1580697603.212,36
1580697613.213,36
1580697623.212,36
1580697633.212,36
1580697643.212,36
1580697653.212,36
1580697663.212,36
1580697673.213,36
1580697683.212,36
1580697693.212,36
1580697703.212,36
1580697713.212,36
1580697723.213,36
1580697733.212,36
1580697743.212,36
1580697753.212,36
1580697763.212,36
1580697773.212,37
1580697783.212,37
1580697793.212,37
1580697803.212,37
1580697813.212,37
1580697823.212,37
1580697833.212,37
1580697843.212,37
1580697853.212,37
1580697863.212,37
1580697873.213,37
1580697883.212,37
1580697893.212,37
1580697903.212,37
1580697913.212,37
1580697923.212,37
1580697933.212,37
1580697943.212,37
1580697953.212,37
1580697963.212,37
1580697973.212,37
1580697983.212,37
1580697993.212,38
1580698003.212,38
1580698013.212,38
1580698023.212,38
1580698033.212,38
1580698043.212,38
1580698053.212,38
1580698063.212,38
1580698073.212,38
1580698083.212,38
1580698093.212,38
1580698103.212,38
1580698113.212,38
1580698123.212,38
1580698133.212,39
1580698143.212,39
1580698153.212,39
1580698163.212,39
1580698173.213,39
1580698183.213,39
1580698193.212,39
1580698203.212,39
1580698213.212,39
1580698223.212,39
1580698233.212,39
1580698243.212,39
1580698253.212,39
1580698263.212,39
1580698273.212,39
1580698283.212,39
1580698293.212,39
1580698303.212,39
1580698313.212,39
1580698323.212,39
1580698333.212,39
1580698343.212,39
1580698353.213,40
1580698363.212,40
1580698373.212,40
1580698383.212,40
1580698393.212,40
1580698403.212,40
1580698413.212,40
1580698423.212,40
1580698433.212,40
1580698443.212,40
1580698453.213,40
1580698463.212,40
1580698473.212,40
1580698483.212,40
1580698493.212,40
1580698503.212,40
1580698513.213,40
1580698523.212,40
1580698533.212,40
1580698543.212,41
1580698553.212,41
1580698563.212,41
1580698573.212,41
1580698583.213,41
1580698593.213,41
1580698603.212,41
1580698613.212,41
1580698623.213,41
1580698633.212,41
1580698643.212,41
1580698653.212,41
1580698663.212,41
1580698673.212,41
1580698683.213,41
1580698693.212,41
1580698703.212,41
1580698713.212,41
1580698723.212,41
1580698733.212,41
1580698743.213,41
1580698753.212,41
1580698763.212,41
1580698773.213,41
1580698783.213,42
1580698793.212,42
1580698803.213,42
1580698813.212,42
1580698823.212,42
1580698833.212,42
1580698843.212,42
1580698853.212,42
1580698863.212,42
1580698873.212,42
1580698883.212,42
1580698893.212,42
1580698903.212,42
1580698913.212,42
1580698923.212,42
1580698933.213,42
1580698943.212,42
1580698963.212,42
1580698973.212,42
1580698983.212,42
1580698993.212,42
1580699003.212,42
1580699013.212,42
1580699023.212,42
1580699033.212,42
1580699043.213,43
1580699053.212,43
1580699063.212,43
1580699073.212,43
1580699083.212,43
1580699093.212,43
1580699103.213,43
1580699113.212,43
1580699123.212,43
1580699133.212,43
1580699143.212,43
1580699153.213,43
1580699163.212,43
1580699173.212,43
1580699183.213,43
1580699193.212,43
1580699203.212,43
1580699213.212,43
1580699223.212,43
1580699233.213,43
1580699243.212,43
1580699253.212,43
1580699263.212,43
1580699273.212,43
1580699283.212,43
1580699293.212,43
1580699303.213,43
1580699313.212,43
1580699323.212,43
1580699333.212,43
1580699343.212,43
1580699353.212,43
1580699363.212,43
1580699373.212,43
1580699383.213,43
1580699393.212,43
1580699403.212,43
1580699413.212,43
1580699423.212,44
1580699433.212,44
1580699453.212,44
1580699463.213,44
1580699473.213,44
1580699483.212,44
1580699493.212,44
1580699503.212,44
1580699513.212,44
1580699523.212,44
1580699533.212,44
1580699543.212,44
1580699553.212,44
1580699563.212,44
1580699573.213,44
1580699583.212,44
1580699603.212,45
1580699613.212,45
1580699623.212,45
1580699633.212,45
1580699643.212,45
1580699653.212,45
1580699663.212,45
1580699673.212,45
1580699683.212,45
1580699693.212,45
1580699703.212,45
1580699713.212,45
1580699723.212,45
1580699733.212,45
1580699743.212,45
1580699753.212,45
1580699763.212,45
1580699773.212,45
1580699783.212,45
1580699793.212,45
1580699803.212,45
1580699813.212,45
1580699823.212,45
1580699833.212,45
1580699843.212,45
1580699853.212,45
1580699863.212,45
1580699873.212,45
1580699883.212,45
1580699893.212,46
1580699903.212,46
1580699923.212,46
1580699933.212,46
1580699943.213,46
1580699953.212,46
1580699963.212,46
1580699973.212,46
1580699983.213,46
1580699993.212,46
1580700003.212,46
1580700013.212,46
1580700023.212,46
1580700033.212,46
1580700043.213,46
1580700053.212,46
1580700063.212,47
1580700073.212,47
1580700083.212,47
1580700093.212,47
1580700103.212,47
1580700113.212,47
1580700123.212,47
1580700133.212,47
1580700143.212,47
1580700153.212,47
1580700163.212,47
1580700173.212,47
1580700183.213,47
1580700193.212,47
1580700203.212,47
1580700213.212,47
