epoch,value
1580232404.824,311909
1580232414.803,311909
1580232424.803,311909
1580232434.803,311909
1580232444.803,311909
1580232454.803,311910
1580232464.803,311910
1580232474.803,311911
1580232484.803,311912
1580232494.803,311912
1580232504.803,311912
1580232514.805,311913
1580232524.803,311914
1580232534.803,311914
1580232544.803,311914
1580232554.803,311915
1580232564.803,311915
1580232574.804,311916
1580232584.803,311917
1580232594.803,311917
1580232604.803,311918
1580232614.804,311919
1580232624.803,311919
1580232634.803,311919
1580232644.803,311919
1580232654.803,311920
1580232664.805,311920
1580232674.804,311920
1580232684.803,311920
1580232694.803,311920
1580232704.803,311920
1580232714.803,311920
1580232724.803,311921
1580232734.803,311921
1580232744.803,311921
1580232754.804,311922
1580232764.803,311922
1580232774.803,311922
1580232784.803,311922
1580232794.805,311924
1580232804.804,311924
1580232814.803,311924
1580232824.803,311924
1580232834.803,311924
1580232844.804,311925
1580232854.803,311925
1580232864.803,311925
1580232874.803,311928
1580232884.804,311929
1580232894.803,311929
1580232904.803,311930
1580232914.804,311931
1580232924.803,311931
1580232934.803,311931
1580232944.803,311931
1580232954.804,311932
1580232964.804,311932
1580232974.803,311932
1580232984.803,311932
1580232994.803,311933
1580233004.803,311933
1580233014.803,311935
1580233024.803,311936
1580233034.803,311936
1580233044.803,311937
1580233054.803,311937
1580233064.803,311937
1580233074.803,311937
1580233084.803,311937
1580233094.803,311938
1580233104.804,311938
1580233114.803,311938
1580233124.806,311938
1580233134.803,311938
1580233144.803,311938
1580233154.803,311939
1580233164.803,311939
1580233174.803,311940
1580233184.805,311940
1580233194.803,311941
1580233204.803,311943
1580233214.803,311944
1580233224.803,311945
1580233234.803,311946
1580233244.803,311947
1580233254.805,311948
1580233264.803,311949
1580233274.803,311949
1580233284.803,311950
1580233294.803,311951
1580233304.803,311952
1580233314.803,311952
1580233324.804,311952
1580233334.803,311954
1580233344.803,311956
1580233354.803,311956
1580233364.803,311956
1580233374.803,311957
1580233384.805,311957
1580233394.803,311959
1580233404.803,311959
1580233414.803,311960
1580233424.803,311960
1580233434.803,311961
1580233444.803,311962
1580233454.803,311962
1580233464.803,311962
1580233474.803,311962
1580233484.803,311963
1580233494.803,311964
1580233504.803,311965
1580233514.803,311966
1580233524.803,311966
1580233534.803,311966
1580233544.803,311966
1580233554.803,311967
1580233564.806,311967
1580233574.803,311969
1580233584.803,311971
1580233594.803,311971
1580233604.805,311972
1580233614.803,311972
1580233624.803,311973
1580233634.803,311973
1580233644.803,311973
1580233654.803,311973
1580233664.803,311974
1580233674.803,311974
1580233684.804,311974
1580233694.803,311975
1580233704.804,311976
1580233714.803,311976
1580233724.805,311976
1580233734.803,311977
1580233744.803,311978
1580233754.803,311978
1580233764.804,311979
1580233774.803,311982
1580233784.803,311983
1580233794.803,311984
1580233804.803,311984
1580233814.803,311986
1580233824.804,311986
1580233834.803,311987
1580233844.803,311988
1580233854.803,311989
1580233864.806,311989
1580233874.803,311990
1580233884.803,311990
1580233894.803,311990
1580233904.803,311990
1580233914.803,311990
1580233924.804,311991
1580233934.803,311992
1580233944.803,311992
1580233954.803,311992
1580233964.803,311993
1580233974.803,311994
1580233984.803,311994
1580233994.803,311996
1580234004.803,311997
1580234014.803,311997
1580234024.803,311999
1580234034.804,312000
1580234044.803,312000
1580234054.804,312000
1580234064.803,312002
1580234074.803,312002
1580234084.803,312002
1580234094.803,312003
1580234104.803,312003
1580234114.804,312004
1580234124.803,312006
1580234134.803,312006
1580234144.804,312006
1580234154.803,312007
1580234164.803,312007
1580234174.803,312008
1580234184.803,312009
1580234194.803,312009
1580234204.803,312011
1580234214.804,312011
1580234224.803,312012
1580234234.803,312012
1580234244.807,312014
1580234254.803,312014
1580234264.803,312014
1580234274.803,312014
1580234284.803,312015
1580234294.803,312016
1580234304.804,312017
1580234314.804,312018
1580234324.803,312019
1580234334.803,312021
1580234344.803,312021
1580234354.803,312021
1580234364.803,312022
1580234374.806,312022
1580234384.803,312023
1580234394.803,312024
1580234404.803,312025
1580234414.803,312025
1580234424.804,312026
1580234434.804,312026
1580234444.805,312027
1580234454.803,312028
1580234464.803,312028
1580234474.803,312029
1580234484.803,312029
1580234494.803,312030
1580234504.804,312030
1580234514.803,312032
1580234524.803,312032
1580234534.805,312032
1580234544.803,312032
1580234554.803,312032
1580234564.803,312033
1580234574.803,312033
1580234584.803,312034
1580234594.803,312035
1580234604.803,312036
1580234614.803,312036
1580234624.803,312036
1580234634.804,312036
1580234644.803,312036
1580234654.803,312036
1580234664.804,312036
1580234674.803,312038
