epoch,value
1579892004.390,0
1579892014.390,0
1579892024.390,0
1579892034.390,3
1579892044.390,22
1579892054.390,28
1579892064.390,30
1579892074.390,31
1579892084.390,32
1579892094.390,32
1579892104.390,33
1579892114.390,34
1579892124.390,34
1579892134.390,35
1579892144.390,35
1579892154.390,36
1579892164.390,37
1579892174.390,37
1579892184.390,37
1579892194.390,38
1579892204.390,38
1579892214.396,38
1579892224.390,39
1579892234.390,43
1579892244.390,47
1579892254.390,47
1579892264.390,47
1579892274.390,48
1579892284.390,49
1579892294.390,50
1579892304.390,54
1579892314.390,71
1579892324.390,81
1579892334.396,90
1579892344.390,90
1579892354.390,90
1579892364.390,90
1579892374.390,90
1579892384.393,90
1579892394.390,90
1579892404.390,90
1579892414.390,90
1579892424.390,90
1579892434.390,90
1579892444.396,90
1579892454.391,90
1579892464.390,90
1579892474.390,90
1579892484.390,90
1579892494.390,90
1579892504.390,90
1579892514.390,90
1579892524.390,90
1579892534.393,90
1579892544.391,90
1579892554.390,90
1579892564.390,90
1579892574.390,90
1579892584.390,90
1579892594.390,90
1579892604.390,90
1579892614.390,90
1579892624.390,90
1579892634.390,90
1579892644.390,90
1579892654.390,90
1579892664.390,90
1579892674.390,90
1579892684.390,90
1579892694.390,90
1579892704.390,90
1579892714.390,90
1579892724.390,90
1579892734.390,90
1579892744.390,90
1579892754.390,90
1579892764.390,90
1579892774.390,90
1579892784.390,90
1579892794.391,90
1579892804.390,90
1579892814.390,90
1579892824.390,90
1579892834.390,90
1579892844.390,90
1579892854.392,91
1579892864.390,91
1579892874.390,91
1579892884.390,91
1579892894.390,91
1579892904.390,91
1579892914.390,91
1579892924.390,91
1579892934.390,91
1579892944.390,91
1579892954.390,91
1579892964.390,91
1579892974.390,91
1579892984.390,91
1579892994.390,91
1579893004.390,91
1579893014.390,91
1579893024.390,91
1579893034.396,91
1579893044.390,91
1579893054.396,91
1579893064.390,91
1579893074.390,91
1579893084.390,91
1579893094.390,91
1579893104.390,91
1579893114.390,91
1579893124.390,91
1579893134.390,92
1579893144.390,92
1579893154.390,92
1579893164.390,92
1579893174.390,92
1579893184.390,92
1579893194.390,92
1579893204.390,92
1579893214.390,92
1579893224.393,92
1579893234.390,92
1579893244.391,92
1579893254.390,92
1579893264.390,92
1579893274.390,92
1579893284.390,92
1579893294.390,92
1579893304.390,93
1579893314.390,93
1579893324.397,93
1579893334.391,93
1579893344.390,93
1579893354.390,93
1579893364.390,93
1579893374.390,94
1579893384.390,94
1579893394.390,94
1579893404.395,94
1579893414.390,94
1579893424.390,94
1579893434.390,94
1579893444.390,94
1579893454.390,94
1579893464.390,94
1579893474.390,94
1579893484.390,94
1579893494.390,94
1579893504.390,94
1579893514.390,94
1579893524.390,94
1579893534.390,94
1579893544.390,94
1579893554.390,94
1579893564.390,94
1579893574.390,94
1579893584.390,95
1579893594.390,95
1579893604.390,95
1579893614.390,95
1579893624.390,95
1579893634.390,95
1579893644.390,95
1579893654.390,95
1579893664.390,95
1579893674.390,95
1579893684.390,95
1579893694.390,95
1579893704.390,95
1579893714.390,95
1579893724.390,95
1579893734.390,95
1579893744.390,95
1579893754.390,95
1579893764.390,95
1579893774.390,95
1579893784.390,95
1579893794.390,95
1579893804.390,95
1579893814.390,95
1579893824.390,95
1579893834.393,95
1579893844.390,95
1579893854.391,95
1579893864.390,95
1579893874.390,95
1579893884.390,95
1579893894.390,95
1579893904.390,95
1579893914.390,95
1579893924.390,95
1579893934.390,96
1579893944.390,96
1579893954.390,96
1579893964.390,96
1579893974.390,96
1579893984.390,96
1579893994.391,96
1579894004.390,96
1579894014.390,96
1579894024.390,96
1579894034.390,96
1579894044.390,96
1579894054.390,96
1579894064.390,96
1579894074.390,96
1579894084.391,96
1579894094.390,96
1579894104.390,96
1579894114.390,96
1579894124.390,96
1579894134.390,97
1579894144.390,97
1579894154.390,97
1579894164.390,97
1579894174.390,97
1579894184.390,97
1579894194.390,97
1579894204.390,97
1579894214.390,97
1579894224.396,97
1579894234.390,97
1579894244.390,97
1579894254.390,97
1579894264.390,97
1579894274.390,97
1579894284.396,97
1579894294.390,97
1579894304.390,97
1579894314.390,97
1579894324.390,97
1579894334.390,97
1579894344.390,97
1579894354.390,98
1579894364.390,98
1579894374.390,98
1579894384.390,98
1579894394.390,98
1579894404.390,98
1579894414.390,98
1579894424.390,98
1579894434.390,98
1579894444.390,98
1579894454.390,98
1579894464.390,98
1579894474.390,98
1579894484.396,98
1579894494.390,98
1579894504.396,98
1579894514.390,99
1579894524.390,99
1579894534.390,99
1579894544.390,99
1579894554.390,99
1579894564.390,99
1579894574.390,99
1579894584.396,99
1579894594.390,99
1579894604.390,99
1579894614.390,99
1579894624.390,99
1579894634.390,99
1579894644.390,99
1579894654.390,99
1579894664.390,99
1579894674.395,99
1579894684.390,99
1579894694.390,99
1579894704.390,99
1579894714.390,100
1579894724.390,100
1579894734.390,100
