epoch,value
1579812441.596,50994
1579812451.575,50995
1579812461.575,50995
1579812471.576,50995
1579812481.575,50995
1579812491.576,50995
1579812501.576,50995
1579812511.575,50995
1579812521.575,50995
1579812531.575,50995
1579812541.575,50995
1579812551.575,50995
1579812561.575,50995
1579812571.575,50995
1579812581.575,50995
1579812591.575,50995
1579812601.575,50996
1579812611.576,50996
1579812621.576,50996
1579812631.575,50996
1579812641.575,50996
1579812651.575,50996
1579812661.575,50996
1579812671.574,50996
1579812681.575,50996
1579812691.575,50996
1579812701.575,50996
1579812711.578,50996
1579812721.575,50996
1579812731.575,50996
1579812741.575,50996
1579812751.575,50996
1579812761.575,50996
1579812771.575,50996
1579812781.575,50996
1579812791.575,50996
1579812801.576,50996
1579812811.575,50996
1579812821.575,50996
1579812831.575,50996
1579812841.576,50996
1579812851.575,50996
1579812861.575,50996
1579812871.575,50996
1579812881.575,50996
1579812891.577,50996
1579812901.575,50996
1579812911.575,50996
1579812921.575,50996
1579812931.575,50996
1579812941.575,50996
1579812951.575,50996
1579812961.575,50996
1579812971.575,50996
1579812981.577,50996
1579812991.577,50996
1579813001.574,50996
1579813011.575,50996
1579813021.579,50996
1579813031.575,50996
1579813041.575,50996
1579813051.574,50996
1579813061.575,50996
1579813071.574,50996
1579813081.575,50998
1579813091.575,50998
1579813101.577,50998
1579813111.578,50998
1579813121.575,50999
1579813131.576,51000
1579813141.575,51000
1579813151.575,51000
1579813161.574,51000
1579813171.574,51000
1579813181.575,51000
1579813191.575,51000
1579813201.575,51000
1579813211.575,51000
1579813221.575,51000
1579813231.575,51000
1579813241.575,51000
1579813251.575,51000
1579813261.575,51001
1579813271.575,51002
1579813281.575,51002
1579813291.575,51002
1579813301.575,51004
1579813311.575,51006
1579813321.575,51008
1579813331.574,51010
1579813341.575,51010
1579813351.574,51012
1579813361.574,51013
1579813371.574,51014
1579813381.575,51014
1579813391.575,51014
1579813401.575,51014
1579813411.575,51014
1579813421.575,51014
1579813431.576,51014
1579813441.575,51014
1579813451.575,51014
1579813461.575,51014
1579813471.575,51014
1579813481.575,51014
1579813491.575,51014
1579813501.574,51014
1579813511.575,51014
1579813521.575,51014
1579813531.575,51014
1579813541.575,51014
1579813551.575,51014
1579813561.576,51015
1579813571.577,51017
1579813581.575,51017
1579813591.575,51017
1579813601.575,51019
1579813611.574,51020
1579813621.575,51022
1579813631.576,51022
1579813641.574,51022
1579813651.575,51022
1579813661.575,51022
1579813671.575,51024
1579813681.575,51024
1579813691.575,51024
1579813701.575,51024
1579813711.575,51024
1579813721.574,51024
1579813731.575,51024
1579813741.575,51024
1579813751.576,51024
1579813761.575,51024
1579813771.574,51024
1579813781.575,51024
1579813791.576,51024
1579813801.575,51024
1579813811.575,51024
1579813821.576,51024
1579813831.575,51025
1579813841.575,51025
1579813851.575,51027
1579813861.575,51027
1579813871.575,51028
1579813881.575,51028
1579813891.575,51028
1579813901.575,51028
1579813911.575,51028
1579813921.575,51028
1579813931.575,51028
1579813941.574,51028
1579813951.576,51028
1579813961.575,51028
1579813971.574,51028
1579813981.575,51028
1579813991.575,51028
1579814001.576,51029
