epoch,value
1580414502.223,0
1580414512.222,0
1580414522.222,0
1580414532.222,0
1580414542.222,1
1580414552.222,2
1580414562.237,4
1580414572.222,5
1580414582.222,9
1580414592.223,22
1580414612.222,44
1580414622.222,51
1580414632.222,62
1580414642.222,73
1580414652.222,83
1580414662.222,94
1580414672.222,104
1580414682.222,112
1580414692.222,121
1580414702.222,126
1580414712.222,131
1580414722.222,131
1580414732.222,131
1580414742.222,131
1580414752.222,131
1580414762.222,131
1580414772.222,131
1580414782.222,132
1580414792.222,132
1580414802.222,132
1580414812.222,132
1580414822.229,132
1580414832.222,132
1580414842.222,132
1580414852.222,132
1580414862.222,132
1580414872.222,132
1580414882.222,132
1580414892.222,132
1580414902.222,132
1580414912.222,133
1580414922.223,133
1580414932.222,133
1580414942.222,133
1580414952.224,133
1580414962.222,133
1580414972.225,133
1580414982.222,133
1580414992.222,133
1580415002.222,133
1580415012.229,133
1580415022.222,133
1580415032.222,133
1580415042.222,133
1580415052.222,133
1580415062.222,133
1580415072.222,134
1580415082.222,134
1580415092.222,134
1580415102.222,134
1580415112.222,134
1580415122.222,134
1580415132.222,134
1580415142.222,134
1580415152.222,134
1580415162.222,134
1580415172.222,134
1580415182.222,134
1580415192.222,134
1580415202.222,135
1580415212.222,135
1580415222.222,135
1580415232.222,135
1580415242.222,135
1580415252.222,135
1580415262.222,135
1580415272.222,135
1580415282.222,135
1580415292.222,135
1580415302.222,136
1580415312.222,136
1580415322.222,136
1580415332.222,136
1580415342.222,137
1580415352.222,137
1580415362.222,137
1580415372.222,137
1580415382.222,137
1580415392.222,137
1580415402.222,137
1580415412.222,137
1580415422.222,137
1580415432.223,137
1580415442.222,138
1580415452.222,138
1580415462.222,138
1580415472.222,138
1580415482.222,138
1580415492.222,138
1580415502.222,138
1580415512.222,138
1580415522.222,138
1580415532.222,138
1580415542.222,139
1580415552.222,139
1580415562.222,139
1580415572.222,139
1580415582.222,139
1580415592.222,139
1580415602.229,139
1580415612.222,139
1580415622.222,139
1580415632.222,139
1580415642.222,140
1580415652.222,140
1580415662.222,140
1580415672.222,140
1580415682.222,140
1580415692.229,140
1580415702.222,140
1580415712.222,140
1580415722.224,140
1580415732.222,140
1580415742.222,140
1580415752.222,140
1580415762.222,140
1580415772.222,140
1580415782.222,140
1580415792.222,140
1580415802.222,140
1580415812.222,140
1580415822.222,140
1580415832.222,141
1580415842.222,141
1580415852.222,141
1580415862.222,141
1580415872.222,141
1580415882.222,141
1580415892.222,141
1580415902.222,141
1580415912.222,141
1580415922.222,141
1580415932.222,141
1580415942.222,141
1580415952.222,141
1580415962.222,141
1580415972.222,141
1580415982.222,141
1580415992.222,141
1580416002.222,141
1580416012.222,141
1580416022.222,141
1580416032.222,141
1580416042.222,141
1580416052.222,141
1580416062.222,141
1580416072.222,141
1580416082.231,141
1580416092.222,141
1580416102.222,141
1580416112.222,142
1580416122.222,142
1580416132.222,142
1580416142.222,142
1580416152.222,142
1580416162.222,142
1580416172.222,142
1580416182.222,142
1580416192.222,142
1580416202.222,142
1580416212.222,142
1580416222.222,142
1580416232.222,142
1580416242.222,142
1580416252.222,142
1580416262.222,142
1580416272.222,142
1580416282.222,142
1580416292.222,142
1580416302.222,142
1580416312.222,142
1580416322.222,142
1580416332.222,142
1580416342.222,142
1580416352.222,143
1580416362.222,143
1580416372.222,143
1580416382.223,143
1580416392.222,143
1580416402.222,143
1580416412.222,143
1580416422.222,143
1580416432.222,143
1580416442.222,143
1580416452.222,143
1580416462.222,143
1580416472.222,144
1580416482.222,144
1580416492.222,144
1580416502.222,144
1580416512.222,144
1580416522.222,144
1580416532.222,144
1580416542.222,144
1580416552.222,144
1580416562.222,144
1580416572.222,144
1580416582.222,144
1580416592.222,144
1580416602.222,144
1580416612.223,145
1580416622.229,145
1580416632.222,145
1580416642.222,145
1580416652.222,145
1580416662.222,145
1580416672.222,145
1580416682.222,145
1580416692.222,145
1580416702.222,145
1580416712.222,145
1580416722.222,145
1580416732.222,145
1580416742.222,146
1580416752.222,146
1580416762.222,146
1580416772.222,146
1580416782.222,146
1580416792.222,146
1580416802.222,146
1580416812.222,146
1580416822.222,146
1580416832.222,146
1580416842.222,146
1580416852.222,146
1580416862.222,146
1580416872.222,146
1580416882.222,147
1580416892.222,147
1580416902.222,147
1580416912.222,147
1580416922.226,147
1580416932.222,147
1580416942.222,147
1580416952.222,147
1580416962.222,148
1580416972.222,148
1580416982.222,148
1580416992.222,148
1580417002.222,148
1580417012.222,148
1580417022.222,149
1580417032.222,149
1580417042.222,149
1580417052.222,149
1580417062.222,150
1580417072.222,150
1580417082.222,150
1580417092.222,151
1580417102.222,151
1580417112.222,151
1580417122.222,151
1580417132.222,151
1580417142.222,152
1580417152.222,152
1580417162.222,152
1580417172.222,152
1580417182.222,152
1580417192.222,152
1580417202.222,152
1580417212.222,152
1580417222.222,152
1580417232.222,152
1580417242.223,152
1580417252.222,152
1580417262.222,152
1580417272.222,152
1580417282.222,152
1580417292.222,152
1580417302.222,153
1580417312.222,153
1580417322.222,153
1580417332.222,153
1580417342.222,153
1580417352.222,153
1580417362.222,153
1580417372.222,153
1580417382.222,153
1580417392.222,153
1580417402.222,153
1580417412.222,153
1580417422.222,154
1580417432.222,154
1580417442.222,154
1580417452.222,154
1580417462.222,154
1580417472.222,154
1580417482.222,154
1580417492.222,154
1580417502.222,154
1580417512.222,154
1580417522.222,155
1580417532.222,155
1580417542.222,155
1580417552.222,155
1580417562.222,155
1580417572.222,155
1580417582.222,155
1580417592.222,155
1580417602.222,155
1580417612.222,156
1580417622.222,156
1580417632.222,156
1580417642.222,156
1580417652.222,156
1580417662.222,156
1580417672.222,156
1580417682.222,156
1580417692.222,156
1580417702.222,156
1580417712.222,156
1580417722.222,156
1580417732.222,156
1580417742.222,157
1580417752.222,157
1580417762.222,157
1580417772.222,157
1580417782.222,157
1580417792.228,157
1580417802.222,157
1580417812.222,157
1580417822.222,157
1580417832.224,157
1580417842.222,157
1580417852.222,157
1580417862.222,157
1580417872.222,157
1580417882.222,158
1580417892.222,158
1580417902.222,158
1580417912.222,158
1580417922.223,158
1580417932.222,158
1580417942.222,158
1580417952.222,158
1580417962.222,158
1580417972.222,158
1580417982.222,158
1580417992.222,158
1580418002.225,158
1580418012.222,158
1580418022.229,158
1580418032.222,158
1580418042.222,158
1580418052.222,158
1580418062.222,158
1580418072.222,158
1580418082.222,158
1580418092.222,158
1580418102.222,158
1580418112.222,158
1580418122.222,158
1580418132.222,159
1580418142.222,159
1580418152.222,159
1580418162.222,159
1580418172.222,159
1580418182.222,159
1580418192.222,159
1580418202.222,159
1580418212.222,159
1580418222.222,159
1580418232.222,159
1580418242.222,159
1580418252.222,159
1580418262.222,159
1580418272.222,159
1580418282.222,159
1580418292.222,159
1580418302.222,159
1580418312.222,159
1580418322.222,159
1580418332.222,159
1580418342.222,159
1580418352.222,159
1580418362.222,159
1580418372.222,159
1580418382.222,159
1580418392.222,159
1580418402.222,159
1580418412.222,160
1580418422.222,160
1580418432.222,160
1580418442.222,160
1580418452.222,160
1580418462.222,160
1580418472.222,160
1580418482.222,160
1580418492.222,160
1580418502.222,160
1580418512.222,160
1580418522.222,160
1580418532.222,160
1580418542.229,160
1580418552.222,160
1580418562.222,160
1580418572.222,160
1580418582.222,161
1580418592.222,161
1580418602.222,161
1580418612.222,161
1580418622.222,161
1580418632.222,161
1580418642.222,162
1580418652.222,162
1580418662.222,162
1580418672.222,163
1580418682.222,163
1580418692.222,163
1580418702.222,164
1580418712.222,164
1580418722.222,164
1580418732.222,165
1580418742.222,165
1580418752.222,165
1580418762.229,165
1580418772.226,166
1580418782.223,166
1580418792.222,166
1580418802.222,166
1580418812.222,166
1580418822.222,166
1580418832.222,166
1580418842.222,166
1580418862.226,167
1580418872.222,167
1580418882.222,167
1580418892.222,167
1580418902.222,167
1580418912.222,168
1580418922.222,168
1580418932.222,168
1580418942.222,168
1580418952.222,168
1580418962.222,168
1580418972.222,168
1580418982.222,169
1580418992.222,169
1580419002.222,169
1580419012.222,169
1580419022.222,169
1580419032.222,169
1580419042.222,170
1580419052.222,170
1580419062.222,170
1580419072.222,170
1580419082.222,170
1580419092.222,170
1580419102.222,171
1580419112.222,171
1580419122.222,171
1580419132.222,171
1580419142.222,171
1580419152.222,171
1580419162.222,172
1580419172.222,172
1580419182.222,172
1580419192.222,172
1580419202.222,172
1580419212.222,172
1580419222.222,172
1580419232.222,172
1580419242.222,172
1580419252.222,172
1580419262.222,172
1580419272.222,173
1580419282.222,173
1580419292.222,173
1580419302.222,173
1580419312.222,173
1580419322.222,173
1580419332.222,174
1580419342.222,174
1580419352.222,174
1580419362.222,174
1580419372.222,174
1580419382.222,174
1580419392.222,174
1580419402.222,175
1580419412.222,175
1580419422.222,175
1580419432.222,175
1580419442.223,175
1580419452.222,175
1580419462.224,175
1580419472.222,175
1580419482.222,175
1580419492.222,176
1580419502.222,176
1580419512.222,176
1580419522.222,176
1580419532.222,176
1580419542.222,177
1580419552.222,177
1580419562.222,177
1580419572.222,177
1580419582.222,177
1580419592.222,177
1580419602.222,177
1580419612.222,177
1580419622.222,177
1580419632.222,177
1580419642.222,177
1580419652.222,177
1580419662.222,178
1580419672.222,178
1580419682.222,178
1580419692.222,178
1580419702.222,178
1580419712.222,178
1580419722.222,178
1580419732.222,178
1580419742.224,179
1580419752.222,179
1580419762.222,179
1580419772.222,179
1580419782.222,179
1580419792.222,179
1580419802.222,179
1580419812.222,179
1580419822.222,179
1580419832.224,179
1580419842.222,179
1580419852.222,180
1580419862.222,180
1580419872.222,180
1580419882.222,180
1580419892.222,180
1580419902.222,180
1580419912.222,180
1580419922.222,180
1580419932.222,180
1580419942.222,180
1580419952.222,181
1580419962.222,181
1580419972.222,181
1580419982.222,181
1580419992.222,181
1580420002.222,181
1580420012.222,181
1580420022.222,181
1580420032.222,181
1580420042.222,181
1580420052.222,181
1580420062.222,181
1580420072.222,181
1580420082.222,181
1580420092.222,182
1580420102.222,182
1580420112.222,182
1580420122.222,182
1580420132.222,182
1580420142.222,182
1580420152.222,182
1580420162.222,182
1580420172.222,182
1580420182.222,182
1580420192.222,182
1580420202.222,182
1580420212.222,182
1580420222.222,182
1580420232.222,182
1580420242.222,182
1580420252.222,182
1580420262.222,183
1580420272.223,183
1580420282.222,183
1580420292.222,183
1580420302.222,183
1580420312.222,183
1580420322.222,183
1580420332.222,183
1580420342.222,183
1580420352.223,183
1580420362.222,183
1580420372.225,183
1580420382.222,184
1580420392.222,184
1580420402.222,184
1580420412.222,184
1580420422.222,184
1580420432.222,184
1580420442.222,184
1580420452.222,184
1580420462.222,184
1580420472.222,184
1580420482.222,184
1580420492.222,184
1580420502.222,184
1580420512.222,184
1580420522.222,184
1580420532.222,184
1580420542.222,184
1580420552.222,184
1580420562.222,184
1580420572.222,184
1580420582.222,184
1580420592.222,184
1580420602.222,184
1580420612.222,184
1580420622.222,184
1580420632.222,185
1580420642.222,185
1580420652.222,185
1580420662.222,185
1580420672.222,185
1580420682.222,185
1580420692.222,185
1580420702.222,185
1580420712.222,185
1580420722.222,185
1580420732.222,185
1580420742.222,185
1580420752.222,185
1580420762.222,185
1580420772.222,185
1580420782.222,185
1580420792.222,185
1580420802.222,185
1580420812.222,185
1580420822.222,185
1580420832.222,185
1580420842.225,185
1580420852.222,185
1580420862.222,185
1580420872.222,186
1580420882.222,186
1580420892.222,186
1580420902.222,186
1580420912.222,186
1580420922.222,186
1580420932.222,186
1580420942.222,186
1580420952.222,186
1580420962.222,186
1580420972.222,186
1580420982.222,186
1580420992.222,186
1580421002.222,187
1580421012.222,187
1580421022.222,187
1580421032.222,187
1580421042.222,187
1580421052.222,187
1580421062.222,187
1580421072.222,188
1580421082.222,188
1580421092.222,188
1580421102.222,188
1580421112.222,188
1580421122.222,188
1580421132.222,189
1580421142.222,189
1580421152.222,189
1580421162.222,189
1580421172.222,189
1580421182.222,189
1580421192.222,189
1580421202.222,190
1580421212.222,190
1580421222.222,190
1580421232.222,190
1580421242.222,190
1580421252.222,190
1580421262.222,190
1580421272.222,190
1580421282.222,190
1580421292.222,190
1580421302.222,190
1580421312.222,190
1580421322.222,190
1580421332.222,191
1580421342.223,191
1580421352.222,191
1580421362.222,191
1580421372.222,191
1580421382.222,191
1580421392.222,191
1580421402.222,192
1580421412.222,192
1580421422.222,192
1580421432.222,192
1580421442.225,192
1580421452.222,192
1580421462.222,192
1580421472.222,192
1580421482.222,192
1580421492.222,192
1580421502.222,192
1580421512.222,192
1580421522.222,192
1580421532.222,192
1580421542.222,192
1580421552.223,192
1580421562.222,192
1580421572.222,193
1580421582.222,193
1580421592.222,193
1580421602.222,193
1580421612.222,193
1580421622.222,193
1580421632.222,193
1580421642.222,193
1580421652.222,193
1580421662.222,193
1580421672.222,193
1580421682.222,194
1580421692.222,194
1580421702.222,194
1580421712.222,194
1580421722.222,194
1580421732.222,194
1580421742.222,194
1580421752.222,194
1580421762.222,194
1580421772.222,194
1580421782.222,194
1580421792.222,195
1580421802.222,195
1580421812.229,195
1580421822.222,195
1580421832.222,195
1580421842.222,195
1580421852.222,195
1580421862.222,195
1580421872.222,195
1580421882.222,196
1580421892.224,196
1580421902.222,196
1580421912.222,196
