epoch,value
1579792966.575,0
1579792976.575,0
1579792986.575,0
1579792996.575,0
1579793006.575,4
1579793016.575,14
1579793026.575,20
1579793036.575,24
1579793046.576,35
1579793056.575,42
1579793066.575,52
1579793076.575,66
1579793086.575,76
1579793096.575,80
1579793106.575,83
1579793116.575,90
1579793126.575,97
1579793136.575,105
1579793146.575,108
1579793156.575,113
1579793166.575,127
1579793176.575,128
1579793186.575,128
1579793196.575,131
1579793206.575,137
1579793216.575,153
1579793226.575,168
1579793236.575,172
1579793246.575,179
1579793256.575,188
1579793266.575,201
1579793276.575,206
1579793286.575,209
1579793296.575,212
1579793306.581,212
1579793316.575,212
1579793326.575,212
1579793336.575,212
1579793346.575,212
1579793356.575,212
1579793366.575,212
1579793376.575,212
1579793386.575,212
1579793396.575,212
1579793406.575,212
1579793416.575,212
1579793426.575,212
1579793436.575,212
1579793446.575,212
1579793456.575,212
1579793466.575,212
1579793476.575,212
1579793486.575,212
1579793496.575,213
1579793506.575,213
1579793516.575,213
1579793526.575,213
1579793536.575,213
1579793546.575,213
1579793556.575,213
1579793566.575,213
1579793576.575,213
1579793586.575,213
1579793596.575,213
1579793606.575,213
1579793616.575,213
1579793626.575,213
1579793636.575,213
1579793646.575,214
1579793656.575,214
1579793666.575,214
1579793676.575,214
1579793686.575,214
1579793696.581,214
1579793706.575,214
1579793716.575,214
1579793726.575,214
1579793736.575,214
1579793746.575,214
1579793756.575,214
1579793766.575,214
1579793776.575,214
1579793786.575,214
1579793796.575,214
1579793806.575,215
1579793816.575,215
1579793826.575,215
1579793836.575,215
1579793846.575,215
1579793856.575,215
1579793866.576,215
1579793876.575,215
1579793886.575,215
1579793896.575,215
1579793906.575,215
1579793916.575,215
1579793926.575,215
1579793936.575,215
1579793946.575,215
1579793956.575,215
1579793966.575,215
1579793976.575,216
1579793986.575,216
1579793996.575,216
1579794006.575,216
1579794016.575,216
1579794026.575,216
1579794036.575,216
1579794046.575,216
1579794056.575,216
1579794066.575,216
1579794076.575,216
1579794086.575,216
1579794096.575,216
1579794106.575,216
1579794116.575,217
1579794126.575,217
1579794136.575,217
1579794146.575,217
1579794156.575,217
1579794166.575,217
1579794176.575,217
1579794186.575,217
1579794196.575,217
1579794206.575,217
1579794216.575,217
1579794226.575,217
1579794236.575,217
1579794246.575,217
1579794256.575,217
1579794266.575,217
1579794276.578,217
1579794286.575,217
1579794296.575,217
1579794306.575,217
1579794316.575,217
1579794326.575,217
1579794336.575,217
1579794346.575,217
1579794356.578,217
1579794366.575,217
1579794376.575,217
1579794386.575,217
1579794406.577,217
1579794416.575,217
1579794426.575,217
1579794436.575,217
1579794446.575,217
1579794456.575,217
1579794466.575,217
1579794476.575,217
1579794486.575,217
1579794496.575,218
