epoch,value
1580237655.115,0
1580237665.117,0
1580237675.115,0
1580237685.121,4
1580237695.115,18
1580237705.115,36
1580237715.115,38
1580237725.115,41
1580237735.115,62
1580237745.115,91
1580237755.115,97
1580237765.115,147
1580237775.115,159
1580237785.115,176
1580237795.115,215
1580237805.115,219
1580237815.115,228
1580237825.115,244
1580237835.115,275
1580237845.115,303
1580237855.115,339
1580237865.115,345
1580237875.115,368
1580237885.115,381
1580237895.115,394
1580237905.115,407
1580237915.115,426
1580237925.115,443
1580237935.115,444
1580237945.115,444
1580237955.115,446
1580237965.115,447
1580237975.115,468
1580237985.115,471
1580237995.115,471
1580238005.115,471
1580238015.117,471
1580238025.115,471
1580238035.115,471
1580238045.115,471
1580238055.115,471
1580238065.115,471
1580238075.115,471
1580238085.115,471
1580238095.115,471
1580238105.115,471
1580238115.115,471
1580238125.115,471
1580238135.115,471
1580238145.115,471
1580238155.115,471
1580238165.115,471
1580238175.115,471
1580238185.115,471
1580238195.115,471
1580238205.115,471
1580238215.115,471
1580238225.115,471
1580238235.115,471
1580238245.115,471
1580238255.115,471
1580238265.115,471
1580238275.115,471
1580238285.115,472
1580238295.115,472
1580238305.115,472
1580238315.115,472
1580238325.115,472
1580238335.115,472
1580238345.115,472
1580238355.115,472
1580238365.115,472
1580238375.115,472
1580238385.115,472
1580238395.115,472
1580238405.115,472
1580238415.115,472
1580238425.115,472
1580238435.115,472
1580238445.115,472
1580238455.115,472
1580238465.115,472
1580238475.115,472
1580238485.115,472
1580238495.115,473
1580238505.115,473
1580238515.115,473
1580238525.115,473
1580238535.115,473
1580238545.115,473
1580238555.117,473
1580238565.115,473
1580238575.115,473
1580238585.115,473
1580238595.115,474
1580238605.115,474
1580238615.115,474
1580238625.115,474
1580238635.117,474
1580238645.115,474
1580238655.115,474
1580238665.115,474
1580238675.115,474
1580238685.115,474
1580238695.115,474
1580238705.115,474
1580238715.115,474
1580238725.115,475
1580238735.115,475
1580238745.115,475
1580238755.115,475
1580238765.115,475
1580238775.115,475
1580238785.115,475
1580238795.115,475
1580238805.115,475
1580238815.115,475
1580238825.115,475
1580238835.115,475
1580238845.115,475
1580238855.115,475
1580238865.115,475
1580238875.115,475
1580238885.115,475
1580238895.115,475
1580238905.115,475
1580238915.115,475
1580238925.115,476
1580238935.115,476
1580238945.115,476
1580238955.115,476
1580238965.115,476
1580238975.115,476
1580238985.115,476
1580238995.115,476
1580239005.115,476
1580239015.115,476
1580239025.115,476
1580239035.115,476
1580239045.115,476
1580239055.115,477
