epoch,value
1580326807.533,324028
1580326817.512,324029
1580326827.510,324030
1580326837.509,324030
1580326847.509,324030
1580326857.509,324030
1580326867.509,324030
1580326877.509,324030
1580326887.509,324030
1580326897.509,324031
1580326907.509,324031
1580326917.509,324032
1580326927.510,324032
1580326937.511,324032
1580326947.510,324032
1580326957.509,324033
1580326967.509,324034
1580326977.509,324034
1580326987.509,324034
1580326997.509,324034
1580327007.509,324034
1580327017.509,324034
1580327027.509,324035
1580327037.509,324036
1580327047.509,324036
1580327057.509,324037
1580327067.509,324037
1580327077.510,324037
1580327087.509,324038
1580327097.509,324039
1580327107.509,324039
1580327117.511,324040
1580327127.509,324042
1580327137.509,324043
1580327147.509,324045
1580327157.509,324046
1580327167.509,324047
1580327177.509,324049
1580327187.509,324049
1580327197.509,324049
1580327207.509,324049
1580327217.509,324049
1580327227.509,324051
1580327237.509,324052
1580327247.509,324053
1580327257.509,324053
1580327267.509,324054
1580327277.509,324055
1580327287.509,324055
1580327297.509,324056
1580327307.509,324056
1580327317.509,324056
1580327327.509,324057
1580327337.510,324058
1580327347.509,324059
1580327357.509,324061
1580327367.509,324063
1580327377.509,324063
1580327387.509,324064
1580327397.509,324065
1580327407.509,324066
1580327417.509,324068
1580327427.509,324070
1580327437.509,324072
1580327447.509,324072
1580327457.509,324074
1580327467.509,324074
1580327477.509,324074
1580327487.509,324075
1580327497.509,324076
1580327507.509,324076
1580327517.509,324076
1580327527.509,324076
1580327537.509,324076
1580327547.512,324076
1580327557.509,324077
1580327567.509,324077
1580327577.509,324078
1580327587.509,324078
1580327597.509,324081
1580327607.509,324082
1580327617.509,324083
1580327627.509,324084
1580327637.509,324084
1580327647.509,324084
1580327657.509,324085
1580327667.509,324086
1580327677.509,324086
1580327687.509,324086
1580327697.512,324086
1580327707.509,324086
1580327717.509,324087
1580327727.509,324087
1580327737.509,324087
1580327747.509,324089
1580327757.510,324089
1580327767.509,324090
1580327777.509,324091
1580327787.510,324091
1580327797.509,324091
1580327807.509,324091
1580327817.510,324091
1580327827.510,324092
1580327837.509,324092
1580327847.509,324092
1580327857.511,324094
1580327867.509,324095
1580327877.509,324096
1580327887.509,324096
1580327897.509,324096
1580327907.509,324096
1580327917.511,324096
1580327927.509,324096
1580327937.509,324096
1580327947.509,324097
1580327957.510,324097
1580327967.509,324097
1580327977.509,324097
1580327987.512,324097
1580327997.509,324097
1580328007.509,324098
1580328017.509,324098
1580328027.509,324100
1580328037.509,324101
1580328047.509,324102
1580328057.509,324103
1580328067.509,324103
1580328077.509,324103
1580328087.509,324103
1580328097.509,324103
1580328107.509,324103
1580328117.509,324103
1580328127.509,324104
1580328137.509,324104
1580328147.509,324104
1580328157.509,324105
1580328167.511,324105
1580328177.509,324106
1580328187.509,324106
1580328197.509,324106
1580328207.509,324106
1580328217.509,324107
1580328227.511,324107
1580328237.509,324107
1580328247.509,324107
1580328257.509,324109
1580328267.509,324109
1580328277.509,324110
1580328287.510,324110
1580328297.509,324112
1580328307.509,324113
1580328317.509,324115
1580328327.509,324115
1580328337.510,324115
1580328347.509,324116
1580328357.509,324117
1580328367.509,324118
1580328377.509,324118
1580328387.509,324118
1580328397.509,324120
1580328407.509,324121
1580328417.509,324122
1580328427.510,324124
1580328437.509,324124
1580328447.509,324124
1580328457.509,324124
1580328467.511,324124
1580328477.509,324126
1580328487.509,324127
1580328497.509,324127
1580328507.509,324128
1580328517.509,324128
1580328527.509,324128
1580328537.509,324128
1580328547.509,324128
1580328557.509,324129
1580328567.511,324129
1580328577.509,324132
1580328587.509,324132
1580328597.509,324133
1580328607.509,324134
1580328617.510,324134
1580328627.509,324134
1580328637.512,324135
1580328647.509,324135
1580328657.512,324136
1580328667.509,324136
1580328677.511,324137
1580328687.509,324137
1580328697.509,324137
1580328707.509,324137
1580328717.509,324137
1580328727.509,324137
1580328737.509,324138
1580328747.509,324138
1580328757.509,324138
1580328767.509,324138
1580328777.510,324140
1580328787.509,324140
1580328797.513,324140
1580328807.509,324140
1580328817.509,324141
1580328827.509,324141
1580328837.509,324142
1580328847.509,324142
1580328857.509,324143
1580328867.509,324144
1580328877.509,324144
1580328887.509,324145
1580328897.509,324146
1580328907.510,324148
1580328917.509,324148
1580328927.509,324150
1580328937.509,324150
1580328947.509,324150
1580328957.509,324150
1580328967.509,324151
1580328977.509,324153
1580328987.509,324153
1580328997.510,324154
1580329007.510,324154
1580329017.509,324155
1580329027.511,324155
1580329037.509,324156
1580329047.509,324156
1580329057.510,324156
1580329067.509,324157
1580329077.509,324159
1580329087.509,324159
1580329097.509,324160
1580329107.509,324160
1580329117.509,324162
1580329127.509,324162
1580329137.509,324163
1580329147.513,324164
1580329157.509,324164
1580329167.509,324164
1580329177.509,324165
1580329187.509,324165
1580329197.509,324166
1580329207.509,324166
1580329217.509,324167
1580329227.509,324167
1580329237.509,324168
1580329247.510,324168
1580329257.510,324171
1580329267.509,324172
1580329277.509,324173
1580329287.509,324173
1580329297.509,324173
1580329307.511,324173
1580329317.509,324175
1580329327.509,324175
1580329337.509,324175
1580329347.510,324175
1580329357.509,324176
1580329367.509,324177
1580329377.509,324178
1580329387.509,324180
1580329397.511,324180
1580329407.509,324180
1580329417.509,324182
1580329427.509,324183
1580329437.509,324184
1580329447.509,324186
1580329457.509,324186
1580329467.509,324188
1580329477.509,324188
1580329487.509,324188
1580329497.510,324188
1580329507.509,324190
1580329517.509,324190
1580329527.509,324191
1580329537.509,324193
1580329547.510,324193
1580329557.509,324194
1580329567.509,324195
1580329577.509,324195
1580329587.509,324195
1580329597.510,324195
1580329607.509,324196
1580329617.511,324197
1580329627.511,324198
1580329637.510,324199
1580329647.509,324200
1580329657.509,324201
1580329667.512,324203
1580329677.511,324204
1580329687.509,324205
1580329697.509,324205
1580329707.509,324205
1580329717.509,324205
1580329727.509,324207
1580329737.509,324209
1580329747.509,324211
1580329757.509,324211
1580329767.510,324212
1580329777.513,324213
1580329787.509,324213
1580329797.509,324214
1580329807.509,324214
1580329817.509,324214
1580329827.511,324214
1580329837.510,324217
1580329847.510,324218
1580329857.509,324219
1580329867.509,324220
1580329877.510,324221
1580329887.509,324222
1580329897.509,324222
1580329907.509,324223
1580329917.509,324223
1580329927.509,324223
1580329937.509,324224
1580329947.509,324224
1580329957.510,324224
1580329967.509,324226
1580329977.509,324226
1580329987.509,324226
1580329997.509,324226
1580330007.509,324227
1580330017.509,324227
1580330027.509,324228
1580330037.509,324228
1580330047.509,324228
1580330057.509,324228
1580330067.509,324228
1580330077.509,324231
1580330087.509,324232
1580330097.510,324235
1580330107.509,324235
1580330117.509,324236
1580330127.509,324236
1580330137.510,324239
1580330147.509,324239
1580330157.509,324240
1580330167.509,324242
1580330177.509,324242
1580330187.509,324243
1580330197.509,324243
1580330207.510,324244
1580330217.509,324244
1580330227.510,324246
1580330237.509,324246
1580330247.509,324248
1580330257.509,324248
1580330267.509,324248
1580330277.509,324249
1580330287.509,324249
1580330297.509,324250
1580330307.509,324250
1580330317.509,324250
1580330327.512,324251
1580330337.509,324252
1580330347.509,324253
1580330357.509,324253
1580330367.509,324253
1580330377.510,324253
1580330387.509,324253
1580330397.509,324253
1580330407.509,324254
1580330417.509,324254
1580330427.509,324254
1580330437.509,324254
1580330447.510,324254
1580330457.509,324255
1580330467.509,324256
1580330477.511,324256
1580330487.512,324256
1580330497.509,324256
1580330507.509,324257
1580330517.509,324258
1580330527.509,324259
1580330537.509,324261
1580330547.509,324264
1580330557.511,324266
1580330567.509,324266
1580330577.509,324268
1580330587.509,324270
1580330597.509,324270
1580330607.509,324270
1580330617.509,324271
1580330627.510,324272
1580330637.509,324272
1580330647.509,324273
1580330657.509,324273
1580330667.509,324274
1580330677.509,324274
1580330687.509,324274
1580330697.509,324274
1580330707.509,324274
1580330717.509,324276
1580330727.509,324276
1580330737.509,324276
1580330747.509,324276
1580330757.512,324277
1580330767.510,324277
1580330777.511,324277
1580330787.510,324278
1580330797.509,324278
1580330807.509,324280
1580330817.509,324281
1580330827.509,324281
1580330837.511,324281
1580330847.509,324282
1580330857.509,324283
1580330867.509,324283
1580330877.509,324284
1580330887.509,324284
1580330897.510,324284
1580330907.509,324284
1580330917.509,324284
1580330927.509,324284
1580330937.509,324285
1580330947.509,324286
1580330957.509,324287
1580330967.509,324287
1580330977.509,324287
1580330987.509,324288
1580330997.510,324290
1580331007.509,324290
1580331017.509,324290
1580331027.509,324291
1580331037.509,324292
1580331047.509,324292
1580331057.509,324292
1580331067.509,324294
1580331077.509,324295
1580331087.509,324296
1580331097.509,324297
1580331107.509,324298
1580331117.509,324298
1580331127.509,324298
1580331137.509,324300
1580331147.509,324300
1580331157.509,324301
1580331167.509,324301
1580331177.509,324302
1580331187.509,324302
1580331197.509,324303
1580331207.510,324303
1580331217.509,324304
1580331227.511,324304
1580331237.509,324304
1580331247.509,324305
1580331257.509,324306
1580331267.509,324306
1580331277.509,324306
1580331287.509,324306
1580331297.510,324308
1580331307.509,324310
1580331317.509,324311
1580331327.511,324312
1580331337.509,324312
1580331347.509,324313
1580331357.509,324314
1580331367.509,324315
1580331377.510,324316
1580331387.509,324316
1580331397.509,324316
1580331407.509,324317
1580331417.510,324318
1580331427.509,324320
1580331437.509,324320
1580331447.509,324320
1580331457.509,324321
1580331467.509,324322
1580331477.510,324322
1580331487.509,324324
1580331497.509,324324
1580331507.509,324325
1580331517.509,324326
1580331527.509,324326
1580331537.509,324326
1580331547.509,324326
1580331557.509,324327
1580331567.509,324327
1580331577.509,324328
1580331587.509,324328
1580331597.509,324328
1580331607.511,324328
1580331617.509,324331
1580331627.509,324332
1580331637.509,324332
1580331647.509,324334
1580331657.509,324334
1580331667.510,324335
1580331677.509,324335
1580331687.509,324335
1580331697.509,324336
1580331707.509,324336
1580331717.509,324337
1580331727.509,324337
1580331737.509,324338
1580331747.509,324338
1580331757.510,324340
1580331767.509,324341
1580331777.509,324342
1580331787.509,324342
1580331797.510,324342
1580331807.509,324343
1580331817.509,324343
1580331827.509,324343
1580331837.510,324343
1580331847.509,324343
1580331857.509,324345
1580331867.510,324345
1580331877.509,324345
1580331887.509,324348
1580331897.509,324349
1580331907.509,324349
1580331917.509,324350
1580331927.509,324350
1580331937.512,324350
1580331947.511,324350
1580331957.509,324350
1580331967.509,324351
1580331977.509,324352
1580331987.511,324353
1580331997.509,324353
1580332007.509,324354
1580332017.509,324354
1580332027.509,324356
1580332037.509,324356
1580332047.509,324356
1580332057.509,324356
1580332067.509,324356
1580332077.511,324358
1580332087.509,324359
1580332097.509,324359
1580332107.512,324359
1580332117.515,324359
1580332127.509,324360
1580332137.509,324361
1580332147.511,324361
1580332157.509,324362
1580332167.509,324364
1580332177.509,324364
1580332187.509,324364
1580332197.509,324365
1580332207.509,324366
1580332217.509,324366
1580332227.509,324366
1580332237.511,324367
1580332247.509,324367
1580332257.509,324367
1580332267.509,324367
1580332277.512,324367
1580332287.509,324368
1580332297.509,324369
1580332307.509,324371
1580332317.510,324372
1580332327.509,324374
1580332337.509,324374
1580332347.509,324374
1580332357.509,324374
1580332367.509,324374
1580332377.509,324374
1580332387.509,324375
1580332397.510,324375
1580332407.509,324375
1580332417.509,324377
1580332427.511,324378
1580332437.510,324378
1580332447.509,324378
1580332457.512,324378
1580332467.509,324379
1580332477.509,324380
1580332487.509,324380
1580332497.509,324382
1580332507.509,324382
1580332517.509,324384
1580332527.509,324384
1580332537.509,324384
1580332547.509,324384
1580332557.509,324385
1580332567.509,324385
1580332577.510,324385
1580332587.513,324385
1580332597.509,324385
1580332607.509,324386
1580332617.509,324389
1580332627.510,324389
1580332637.509,324391
1580332647.509,324392
1580332657.509,324392
1580332667.509,324392
1580332677.510,324393
1580332687.509,324393
1580332697.509,324393
1580332707.509,324394
1580332717.509,324396
1580332727.510,324396
1580332737.509,324396
1580332747.510,324397
1580332757.509,324397
1580332767.509,324398
1580332777.509,324399
1580332787.509,324399
1580332797.509,324400
1580332807.509,324401
1580332817.509,324401
1580332827.509,324404
1580332837.509,324405
1580332847.510,324405
1580332857.509,324406
1580332867.509,324407
1580332877.510,324408
1580332887.509,324409
1580332897.509,324411
1580332907.510,324412
1580332917.512,324413
1580332927.509,324414
1580332937.509,324414
1580332947.509,324415
1580332957.509,324415
1580332967.509,324416
1580332977.509,324416
1580332987.509,324416
1580332997.509,324416
1580333007.509,324416
1580333017.509,324416
1580333027.509,324416
1580333037.509,324416
1580333047.509,324417
1580333057.509,324417
1580333067.509,324417
1580333077.509,324418
1580333087.509,324418
1580333097.509,324418
1580333107.509,324418
1580333117.509,324419
1580333127.509,324421
1580333137.509,324422
1580333147.511,324422
1580333157.509,324423
1580333167.509,324424
1580333177.509,324424
1580333187.509,324425
1580333197.509,324426
1580333207.509,324426
1580333217.512,324427
1580333227.509,324427
1580333237.511,324427
1580333247.509,324427
1580333257.509,324429
1580333267.509,324429
1580333277.510,324429
1580333287.509,324429
1580333297.510,324429
1580333307.509,324429
1580333317.509,324431
1580333327.509,324431
1580333337.509,324432
1580333347.510,324433
1580333357.509,324433
1580333367.509,324433
1580333377.509,324433
1580333387.509,324434
1580333397.510,324434
1580333407.510,324434
1580333417.510,324434
1580333427.509,324435
1580333437.509,324436
1580333447.509,324436
1580333457.509,324437
1580333467.512,324437
1580333477.509,324437
1580333487.509,324437
1580333497.509,324438
1580333507.510,324439
1580333517.509,324439
1580333527.509,324441
1580333537.509,324442
1580333547.509,324444
1580333557.509,324444
1580333567.509,324444
1580333577.509,324445
1580333587.509,324445
1580333597.509,324446
1580333607.509,324447
1580333617.510,324448
1580333627.510,324448
1580333637.509,324449
1580333647.509,324450
1580333657.509,324450
1580333667.509,324450
1580333677.509,324450
1580333687.509,324450
1580333697.509,324451
1580333707.509,324451
1580333717.509,324452
1580333727.509,324453
1580333737.509,324453
1580333747.509,324456
1580333757.509,324458
1580333767.509,324458
1580333777.509,324459
1580333787.509,324460
1580333797.509,324461
1580333807.509,324462
1580333817.510,324463
1580333827.509,324464
1580333837.510,324464
1580333847.509,324465
1580333857.510,324466
1580333867.509,324466
1580333877.509,324468
1580333887.510,324468
1580333897.509,324468
1580333907.509,324468
1580333917.509,324469
1580333927.509,324469
1580333937.509,324471
1580333947.510,324473
1580333957.509,324473
1580333967.512,324474
1580333977.511,324474
1580333987.509,324475
1580333997.509,324476
1580334007.509,324476
1580334017.509,324477
1580334027.509,324479
1580334037.509,324479
1580334047.509,324480
1580334057.509,324480
1580334067.513,324481
1580334077.509,324482
1580334087.509,324482
1580334097.509,324483
1580334107.510,324484
1580334117.510,324485
1580334127.509,324486
1580334137.509,324487
1580334147.509,324488
1580334157.509,324489
1580334167.509,324490
1580334177.509,324490
1580334187.509,324491
1580334197.510,324492
1580334207.509,324493
1580334217.509,324493
1580334227.509,324494
1580334237.509,324494
1580334247.509,324494
1580334257.509,324494
1580334267.509,324495
1580334277.509,324495
1580334287.510,324495
1580334297.509,324496
1580334307.509,324498
1580334317.509,324499
1580334327.512,324500
1580334337.509,324500
1580334347.509,324501
1580334357.509,324502
1580334367.509,324504
