epoch,value
1580343819.535,0
1580343829.533,0
1580343839.533,0
1580343849.533,4
1580343859.533,19
1580343869.533,35
1580343879.533,41
1580343889.534,46
1580343899.533,46
1580343909.533,53
1580343919.533,54
1580343929.540,62
1580343939.533,68
1580343949.533,74
1580343959.540,79
1580343969.533,80
1580343979.533,80
1580343989.533,80
1580343999.533,81
1580344009.533,89
1580344019.533,96
1580344029.533,107
1580344039.533,112
1580344049.533,113
1580344059.533,114
1580344069.533,118
1580344079.533,124
1580344089.533,124
1580344099.533,131
1580344109.533,134
1580344119.534,134
1580344129.540,141
1580344139.533,142
1580344149.533,143
1580344159.533,143
1580344169.533,143
1580344179.533,143
1580344189.539,143
1580344199.533,143
1580344209.533,143
1580344219.540,143
1580344229.533,143
1580344239.533,143
1580344249.533,143
1580344259.533,143
1580344269.533,143
1580344279.533,143
1580344289.533,143
1580344299.533,143
1580344309.533,143
1580344319.533,143
1580344329.533,143
1580344339.533,144
1580344349.533,144
1580344359.533,144
1580344369.533,144
1580344379.533,144
1580344389.533,144
1580344399.533,144
1580344409.533,144
1580344419.533,144
1580344429.537,144
1580344439.533,144
1580344449.540,144
1580344459.533,144
1580344469.533,145
1580344479.533,145
1580344489.533,145
1580344499.533,145
1580344509.533,145
1580344519.533,145
1580344529.533,145
1580344539.533,145
1580344549.533,145
1580344559.533,145
1580344569.533,145
1580344579.533,145
1580344589.533,145
1580344599.533,145
1580344609.533,145
1580344619.533,145
1580344629.533,145
1580344639.533,145
1580344649.533,146
1580344659.533,146
1580344669.533,146
1580344679.533,146
1580344689.533,146
1580344699.533,146
1580344709.533,146
1580344719.533,146
1580344729.533,146
1580344739.533,146
1580344749.535,146
1580344759.533,146
1580344769.533,146
1580344779.533,146
1580344789.533,146
1580344799.533,146
1580344809.533,146
1580344819.533,146
1580344829.533,146
1580344839.533,146
1580344849.533,146
1580344859.533,146
1580344869.533,146
1580344879.533,146
1580344889.533,146
1580344899.533,147
1580344909.533,147
1580344919.533,147
1580344929.533,147
1580344939.533,147
1580344949.533,147
1580344959.533,147
1580344969.533,147
1580344979.533,147
1580344989.533,147
1580344999.533,147
1580345009.533,147
1580345029.533,147
1580345039.533,147
1580345049.533,147
1580345059.533,147
1580345069.533,147
1580345079.533,147
1580345089.533,147
1580345099.533,147
1580345109.533,147
1580345119.533,148
1580345129.533,148
1580345139.533,148
1580345149.533,148
1580345159.533,148
1580345169.533,148
1580345179.533,148
1580345189.533,148
1580345199.533,148
1580345209.533,148
1580345219.533,148
1580345229.533,148
1580345239.533,148
1580345249.533,148
1580345259.533,148
1580345269.533,148
1580345279.533,148
1580345289.533,148
1580345299.533,148
1580345309.533,148
1580345319.533,148
1580345329.533,148
1580345339.533,148
1580345349.533,149
1580345359.533,149
1580345369.533,149
1580345379.533,149
1580345389.533,149
1580345399.533,149
1580345409.533,149
1580345419.533,149
1580345429.533,149
1580345439.533,149
1580345449.533,149
1580345459.533,149
1580345469.533,149
1580345479.533,149
1580345489.533,149
1580345499.536,149
1580345509.533,149
1580345519.533,149
1580345529.533,149
1580345539.533,149
1580345549.533,149
1580345559.533,149
1580345569.533,149
1580345579.533,149
1580345589.533,149
1580345599.533,149
1580345609.533,149
1580345619.533,149
1580345629.533,150
1580345639.533,150
1580345649.533,150
1580345659.533,150
1580345669.537,150
1580345679.533,150
1580345689.533,150
1580345699.533,150
1580345709.533,150
1580345719.540,150
1580345729.533,150
1580345739.533,150
1580345749.533,150
1580345759.533,150
1580345769.533,150
1580345779.533,150
1580345789.533,150
1580345799.533,150
1580345809.533,150
1580345819.533,150
1580345829.533,150
1580345839.533,150
1580345849.533,150
1580345859.533,150
1580345869.533,150
1580345879.533,150
1580345889.533,150
1580345899.533,150
1580345909.533,151
1580345919.540,151
1580345929.533,151
1580345939.533,151
1580345949.533,151
1580345959.533,151
1580345969.533,151
1580345979.533,151
1580345989.533,151
1580345999.533,151
1580346009.533,151
1580346019.533,151
1580346029.533,151
1580346039.533,151
1580346049.533,151
1580346059.535,151
1580346069.533,151
1580346079.533,151
1580346089.533,151
1580346099.533,151
1580346109.533,152
1580346119.533,152
1580346129.533,152
1580346139.533,152
1580346149.533,152
1580346159.533,152
1580346169.533,152
1580346179.533,152
1580346189.533,152
1580346199.533,152
1580346209.533,152
1580346219.533,152
1580346229.533,152
1580346239.533,152
1580346249.533,152
1580346259.533,153
1580346269.533,153
1580346279.533,153
1580346289.533,153
1580346299.533,153
1580346309.533,153
1580346319.537,153
1580346329.533,153
1580346339.533,153
1580346349.533,153
1580346359.533,153
1580346369.533,153
1580346379.533,153
1580346389.533,153
1580346399.533,153
1580346409.533,153
1580346419.533,153
1580346429.533,153
1580346439.533,153
1580346449.533,153
1580346459.533,153
1580346469.536,153
1580346479.533,153
1580346489.533,153
1580346499.533,154
1580346509.533,154
1580346519.533,154
1580346529.533,154
1580346539.533,154
1580346549.533,154
1580346559.533,154
1580346569.533,154
1580346579.533,154
1580346589.533,154
1580346599.533,154
1580346609.533,154
1580346619.533,154
1580346629.533,154
1580346639.533,154
1580346649.533,154
1580346659.533,154
1580346669.533,154
1580346679.533,154
1580346689.533,154
1580346699.533,154
1580346709.533,154
1580346719.533,154
1580346729.533,154
1580346739.533,154
1580346749.533,154
1580346759.533,154
1580346769.533,155
1580346779.533,155
1580346789.533,155
1580346799.533,155
1580346809.533,155
1580346819.533,155
1580346829.533,155
1580346839.533,155
1580346849.533,155
1580346859.533,155
1580346869.533,155
1580346879.533,155
1580346889.533,155
1580346899.533,155
1580346909.533,155
1580346919.533,155
1580346929.533,155
1580346939.533,155
1580346949.533,155
1580346959.533,155
1580346969.533,155
1580346979.533,155
1580346989.533,155
1580346999.533,155
1580347009.533,155
1580347019.533,155
1580347029.534,155
1580347039.533,155
1580347049.533,155
1580347059.533,155
1580347069.533,155
1580347079.533,155
1580347089.533,155
1580347099.533,155
1580347109.533,156
1580347119.533,156
1580347129.533,156
1580347139.533,156
1580347149.533,156
1580347159.533,156
1580347169.533,156
1580347179.533,156
1580347189.533,156
1580347199.533,156
1580347209.533,156
1580347219.533,156
1580347229.533,156
1580347239.533,156
1580347249.533,157
1580347259.533,157
1580347269.533,157
1580347279.533,157
1580347289.533,157
1580347299.533,157
1580347309.533,157
1580347319.533,157
1580347329.533,157
1580347339.533,157
1580347349.533,157
1580347359.533,157
1580347369.533,157
1580347379.533,157
1580347389.533,157
1580347399.533,157
1580347409.533,157
1580347419.533,157
1580347429.533,157
1580347439.533,157
1580347449.533,157
1580347459.533,157
1580347469.533,157
1580347479.533,157
1580347489.533,157
1580347499.533,157
1580347509.533,158
1580347519.533,158
1580347529.533,158
1580347539.533,158
1580347549.537,158
1580347559.533,158
1580347569.533,158
1580347579.533,158
1580347589.533,158
1580347599.533,158
1580347609.533,158
1580347619.533,158
1580347629.533,158
1580347639.533,158
1580347649.533,158
1580347659.533,158
1580347669.533,158
1580347679.533,158
1580347689.533,158
1580347699.533,159
1580347709.533,159
1580347719.533,159
1580347729.533,159
1580347739.533,159
1580347749.533,159
1580347759.533,159
1580347769.533,159
1580347779.533,159
1580347789.533,159
1580347799.533,159
1580347809.533,159
1580347819.533,159
1580347829.533,159
1580347839.533,159
1580347849.533,159
1580347859.533,159
1580347869.533,159
1580347879.533,159
1580347889.533,160
1580347899.533,160
1580347909.533,160
1580347919.533,160
1580347929.533,160
1580347939.533,160
1580347949.533,160
1580347959.533,160
1580347969.533,160
1580347979.533,160
1580347989.533,160
1580347999.533,160
1580348009.540,160
1580348019.533,160
1580348029.533,160
1580348039.533,160
1580348049.533,160
1580348059.533,160
1580348069.533,160
1580348079.533,160
1580348089.533,160
1580348099.533,161
1580348109.533,161
1580348119.533,161
1580348129.533,161
1580348139.533,161
1580348149.533,161
1580348159.533,161
1580348169.533,161
1580348179.533,161
1580348189.533,161
1580348199.533,161
1580348209.533,161
1580348219.533,161
1580348229.533,161
1580348239.533,161
1580348249.533,161
1580348259.533,161
1580348269.533,161
1580348279.533,161
1580348289.533,161
1580348299.533,161
1580348309.535,161
1580348319.533,161
1580348329.533,161
1580348339.533,161
1580348349.533,161
1580348359.533,161
1580348369.533,162
1580348379.533,162
1580348389.533,162
1580348399.533,162
1580348409.533,162
1580348419.533,162
1580348429.533,162
1580348439.533,162
1580348449.533,162
1580348459.533,163
1580348469.533,163
1580348479.533,163
1580348489.533,163
1580348499.533,163
1580348509.533,163
1580348519.533,163
1580348529.533,163
1580348539.533,163
1580348549.533,163
1580348559.533,164
1580348569.533,164
1580348579.533,164
1580348589.533,164
1580348599.533,164
1580348609.533,165
1580348619.533,165
1580348629.533,165
1580348639.533,165
1580348649.533,166
1580348659.533,166
1580348669.533,166
1580348679.533,166
1580348689.533,166
1580348699.533,167
1580348709.533,167
1580348719.533,167
1580348729.533,167
1580348739.533,168
1580348749.533,168
1580348759.533,168
1580348769.533,168
1580348779.533,168
1580348789.533,168
1580348799.533,168
1580348809.533,169
1580348819.533,169
1580348829.533,169
1580348839.533,169
1580348849.537,169
1580348859.533,170
1580348869.533,170
1580348879.533,170
1580348889.533,170
1580348899.533,170
1580348909.533,171
1580348919.533,171
1580348929.533,171
1580348939.533,171
1580348949.533,171
1580348959.533,171
1580348969.533,172
1580348979.533,172
1580348989.533,172
1580348999.533,172
1580349009.533,173
1580349019.533,173
1580349029.533,173
1580349039.533,173
1580349049.533,174
1580349059.533,174
1580349069.533,174
1580349079.533,174
1580349089.533,174
1580349099.533,174
1580349109.533,175
1580349119.533,175
1580349129.533,175
1580349139.533,175
1580349149.534,175
1580349159.533,176
1580349169.533,176
1580349179.533,176
1580349189.533,176
1580349199.533,177
1580349209.533,177
1580349219.533,177
1580349229.533,177
1580349239.533,177
1580349249.533,177
1580349259.533,178
1580349269.533,178
1580349279.533,178
1580349289.533,178
1580349299.533,178
1580349309.533,178
1580349319.533,178
1580349329.533,178
1580349339.533,178
1580349349.533,179
1580349359.533,179
1580349369.533,179
1580349379.537,179
1580349389.533,179
1580349399.533,179
1580349409.533,179
1580349419.533,180
1580349429.533,180
1580349439.533,180
1580349449.533,180
1580349459.533,180
1580349469.533,180
1580349479.533,180
1580349489.533,180
1580349499.533,180
1580349509.533,180
1580349519.533,181
1580349529.533,181
1580349539.533,181
1580349549.533,181
1580349559.533,181
1580349569.533,181
1580349579.533,181
1580349589.533,181
1580349599.533,181
1580349609.533,181
1580349619.533,181
1580349629.533,181
1580349639.533,181
1580349649.533,181
1580349659.533,181
1580349669.533,181
1580349679.533,182
1580349689.533,182
1580349699.533,182
1580349709.533,182
1580349719.533,182
1580349729.533,182
1580349739.533,182
1580349749.533,182
1580349759.533,182
1580349769.533,182
1580349779.533,182
1580349789.533,182
1580349799.533,182
1580349809.533,182
1580349819.533,182
1580349829.533,182
1580349839.533,182
1580349849.533,182
1580349859.533,182
1580349869.533,182
1580349879.533,182
1580349889.533,182
1580349899.533,182
1580349909.533,183
1580349919.533,183
1580349929.533,183
1580349939.533,183
1580349949.533,183
1580349959.533,183
1580349969.533,183
1580349979.533,183
1580349989.533,183
1580349999.533,183
1580350009.533,183
1580350019.533,183
1580350029.533,183
1580350039.533,183
1580350049.533,183
1580350059.535,183
1580350069.533,184
1580350079.533,184
1580350089.533,184
1580350099.533,184
1580350109.533,184
1580350119.533,184
1580350129.533,184
1580350139.533,184
1580350149.533,184
1580350159.533,184
1580350169.533,184
1580350179.533,184
1580350189.533,184
1580350199.538,184
1580350209.533,184
1580350219.533,184
1580350229.533,184
1580350239.533,184
1580350249.533,184
1580350259.533,184
1580350269.533,184
1580350279.533,184
1580350289.533,184
1580350299.533,184
1580350309.533,184
1580350319.533,185
1580350329.533,185
1580350339.533,185
1580350349.533,185
1580350359.533,185
1580350369.533,185
1580350379.533,185
1580350389.533,185
1580350399.533,185
1580350409.533,185
1580350419.533,186
1580350429.533,186
1580350439.533,186
1580350449.533,186
1580350459.533,186
1580350469.533,186
1580350479.533,186
1580350489.533,186
1580350499.533,186
1580350509.533,186
1580350519.533,186
1580350529.533,186
1580350539.533,186
1580350549.533,186
1580350559.533,186
1580350569.533,186
1580350579.533,186
1580350589.533,186
1580350599.533,186
1580350609.533,186
1580350619.533,186
1580350629.533,187
1580350639.533,187
1580350649.533,187
1580350659.533,187
1580350669.540,187
1580350679.533,187
1580350689.533,187
1580350699.533,187
1580350709.533,188
1580350719.533,188
1580350729.533,188
1580350739.533,188
1580350749.533,188
1580350759.533,188
1580350769.533,189
1580350779.533,189
1580350789.533,190
1580350799.533,190
1580350809.533,190
1580350819.533,190
1580350829.540,190
1580350839.533,190
1580350849.533,190
1580350859.533,191
1580350869.533,191
1580350879.533,191
1580350889.533,191
1580350899.533,191
1580350909.533,191
1580350919.533,191
1580350929.533,191
1580350939.533,191
1580350949.533,191
1580350959.533,192
1580350969.533,192
1580350979.533,192
1580350989.533,192
1580350999.533,192
1580351009.540,192
1580351019.533,192
1580351029.537,192
1580351039.533,192
1580351049.533,192
1580351059.533,192
1580351069.533,192
1580351079.533,192
1580351089.533,192
1580351099.533,192
1580351109.533,192
1580351119.533,192
1580351129.540,192
1580351139.533,193
1580351149.533,193
1580351159.533,193
1580351169.533,193
1580351179.533,193
1580351189.533,193
1580351199.533,193
1580351209.533,193
1580351219.533,193
1580351229.533,193
1580351239.533,193
1580351249.533,193
1580351259.533,193
1580351269.533,193
1580351279.533,193
1580351289.533,193
1580351299.533,193
1580351309.533,193
1580351319.533,193
1580351329.533,194
1580351339.533,194
1580351349.533,194
