epoch,value
1580422990.067,385894
1580423000.046,385895
1580423010.046,385895
1580423020.046,385895
1580423030.046,385896
1580423040.045,385896
1580423050.046,385913
1580423060.046,385931
1580423070.048,385967
1580423080.048,386006
1580423090.046,386052
1580423100.046,386079
1580423110.046,386114
1580423120.046,386146
1580423130.046,386184
1580423140.046,386216
1580423150.046,386261
1580423160.046,386305
1580423170.046,386355
1580423180.046,386394
1580423190.046,386433
1580423200.046,386488
1580423210.047,386521
1580423220.046,386555
1580423230.046,386602
1580423240.045,386648
1580423250.046,386697
1580423260.046,386754
1580423270.046,386806
1580423280.046,386857
1580423290.046,386904
1580423300.046,386948
1580423310.046,386996
1580423320.046,387042
1580423330.046,387095
1580423340.047,387153
1580423350.046,387218
1580423360.049,387276
1580423370.046,387322
1580423380.046,387363
1580423390.047,387398
1580423400.046,387439
1580423410.046,387481
1580423420.047,387533
1580423430.046,387579
1580423440.046,387626
1580423450.048,387658
1580423460.046,387714
1580423470.046,387752
1580423480.046,387799
1580423490.046,387842
1580423500.046,387900
1580423510.046,387942
1580423520.046,387983
1580423530.046,388050
1580423540.046,388106
1580423550.046,388154
1580423560.046,388192
1580423570.048,388241
1580423580.046,388298
1580423590.046,388340
1580423600.046,388384
1580423610.048,388420
1580423620.046,388454
1580423630.047,388488
1580423640.046,388527
1580423650.046,388566
1580423660.046,388614
1580423670.046,388646
1580423680.046,388704
1580423690.046,388740
1580423700.046,388790
1580423710.046,388829
1580423720.046,388868
1580423730.046,388922
1580423740.046,388970
1580423750.048,389002
1580423760.048,389034
1580423770.046,389083
1580423780.047,389134
1580423790.046,389184
1580423800.046,389227
1580423810.046,389268
1580423820.046,389312
1580423830.046,389363
1580423840.046,389422
1580423850.046,389471
1580423860.046,389530
1580423870.046,389572
1580423880.046,389627
1580423890.046,389668
1580423900.048,389717
1580423910.047,389762
1580423920.046,389804
1580423930.046,389843
1580423940.046,389888
1580423950.046,389928
1580423960.046,389971
1580423970.046,390023
1580423980.046,390062
1580423990.046,390103
1580424000.046,390137
1580424010.046,390186
1580424020.046,390238
1580424030.048,390266
1580424040.046,390310
1580424050.046,390358
1580424060.046,390409
1580424070.047,390452
1580424080.046,390492
1580424090.046,390536
1580424100.046,390583
1580424110.046,390633
1580424120.046,390679
1580424130.046,390726
1580424140.049,390780
1580424150.046,390839
1580424160.046,390892
1580424170.047,390950
1580424180.046,390994
1580424190.046,391028
1580424200.046,391085
1580424210.046,391130
1580424220.046,391172
1580424230.046,391212
1580424240.046,391254
1580424250.046,391314
1580424260.046,391368
1580424270.048,391412
1580424280.046,391453
1580424290.046,391493
1580424300.046,391543
1580424310.046,391580
1580424320.047,391623
1580424330.046,391660
1580424340.046,391693
1580424350.046,391746
1580424360.046,391798
1580424370.046,391854
1580424380.046,391902
1580424390.046,391946
1580424400.046,391996
1580424410.046,392043
1580424420.047,392088
1580424430.050,392136
1580424440.046,392179
1580424450.046,392230
1580424460.046,392282
1580424470.046,392322
1580424480.046,392367
1580424490.046,392416
1580424500.046,392455
1580424510.046,392493
1580424520.046,392542
1580424530.047,392576
1580424540.046,392612
1580424550.046,392649
1580424560.046,392693
1580424570.046,392745
1580424580.047,392784
1580424590.046,392812
1580424600.046,392860
1580424610.046,392893
1580424620.046,392942
1580424630.046,392980
1580424640.046,393023
1580424650.046,393076
1580424660.046,393126
1580424670.046,393169
1580424680.046,393214
1580424690.046,393270
1580424700.046,393310
1580424710.048,393353
1580424720.046,393406
1580424730.046,393460
1580424740.046,393519
1580424750.046,393571
1580424760.046,393626
1580424770.046,393681
1580424780.048,393729
1580424790.046,393774
1580424800.046,393818
1580424810.046,393861
1580424820.046,393906
1580424830.046,393943
1580424840.046,393987
1580424850.045,394025
1580424860.046,394070
1580424870.046,394108
1580424880.046,394151
1580424890.046,394201
1580424900.048,394248
1580424910.046,394278
1580424920.046,394321
1580424930.046,394364
1580424940.046,394404
1580424950.046,394444
1580424960.047,394488
1580424970.046,394529
1580424980.047,394578
1580424990.046,394617
1580425000.047,394660
1580425010.046,394713
1580425020.046,394761
1580425030.046,394801
1580425040.046,394848
1580425050.046,394894
1580425060.046,394944
1580425070.046,394994
1580425080.046,395046
1580425090.046,395094
1580425100.047,395148
1580425110.046,395194
1580425120.045,395243
1580425130.048,395292
1580425140.046,395339
1580425150.046,395378
1580425160.047,395419
1580425170.049,395476
1580425180.046,395516
1580425190.046,395559
