epoch,value
1580425200.046,395612
1580425210.046,395661
1580425220.046,395701
1580425230.047,395736
1580425240.047,395736
1580425250.046,395736
1580425260.046,395736
1580425270.045,395736
1580425280.046,395737
1580425290.046,395738
1580425300.046,395738
1580425310.046,395738
1580425320.045,395740
1580425330.046,395740
1580425340.046,395741
1580425350.046,395742
1580425360.046,395744
1580425370.046,395744
1580425380.046,395744
1580425390.045,395745
1580425400.046,395747
1580425410.046,395748
1580425420.046,395748
1580425430.046,395748
1580425440.046,395748
1580425450.046,395748
1580425460.046,395748
1580425470.046,395749
1580425480.046,395749
1580425490.046,395750
1580425500.046,395752
1580425510.046,395752
1580425520.046,395753
1580425530.046,395753
1580425540.046,395754
1580425550.046,395755
1580425560.046,395758
1580425570.046,395759
1580425580.046,395760
1580425590.046,395760
1580425600.047,395760
1580425610.047,395762
1580425620.048,395762
1580425630.046,395762
1580425640.048,395764
1580425650.045,395764
1580425660.048,395765
1580425670.046,395765
1580425680.046,395765
1580425690.046,395766
1580425700.046,395766
1580425710.046,395766
1580425720.048,395766
1580425730.048,395767
1580425740.048,395767
1580425750.047,395768
1580425760.046,395769
1580425770.046,395769
1580425780.046,395770
1580425790.046,395770
1580425800.046,395771
1580425810.045,395772
1580425820.045,395773
1580425830.046,395773
1580425840.047,395774
1580425850.046,395774
1580425860.046,395775
1580425870.046,395776
1580425880.050,395776
1580425890.045,395776
1580425900.046,395776
1580425910.046,395776
1580425920.046,395777
1580425930.046,395779
1580425940.046,395780
1580425950.048,395781
1580425960.046,395782
1580425970.046,395782
1580425980.046,395783
1580425990.046,395784
1580426000.047,395785
1580426010.046,395785
1580426020.046,395785
1580426030.046,395786
1580426040.046,395786
1580426050.046,395787
1580426060.046,395788
1580426070.046,395789
1580426080.046,395789
1580426090.046,395790
1580426100.046,395790
1580426110.046,395790
1580426120.046,395791
1580426130.046,395792
1580426140.046,395793
1580426150.046,395794
1580426160.048,395795
1580426170.046,395796
1580426180.046,395797
1580426190.045,395797
1580426200.046,395797
1580426210.046,395798
1580426220.045,395798
1580426230.046,395800
1580426240.046,395800
1580426250.046,395801
1580426260.046,395802
1580426270.046,395802
1580426280.046,395802
1580426290.046,395803
1580426300.050,395805
1580426310.046,395806
1580426320.046,395806
1580426330.046,395807
1580426340.046,395810
1580426350.046,395810
1580426360.046,395811
1580426370.046,395812
1580426380.046,395814
1580426390.046,395815
1580426400.046,395817
1580426410.046,395819
1580426420.046,395820
1580426430.050,395821
1580426440.046,395821
1580426450.046,395822
1580426460.046,395822
1580426470.046,395822
1580426480.046,395824
1580426490.046,395824
1580426500.046,395824
1580426510.046,395825
1580426520.046,395826
1580426530.046,395826
1580426540.046,395827
1580426550.046,395827
1580426560.046,395829
1580426570.046,395830
1580426580.050,395831
1580426590.046,395831
1580426600.046,395832
1580426610.046,395833
1580426620.046,395833
1580426630.046,395834
1580426640.046,395834
1580426650.046,395835
1580426660.046,395835
1580426670.046,395836
1580426680.047,395836
1580426690.046,395836
1580426700.047,395836
1580426710.047,395837
1580426720.048,395838
1580426730.049,395840
1580426740.046,395840
1580426750.046,395840
1580426760.046,395841
1580426770.047,395842
1580426780.045,395843
1580426790.045,395844
1580426800.047,395845
1580426810.046,395846
1580426820.047,395848
1580426830.046,395848
1580426840.046,395848
1580426850.046,395848
1580426860.046,395850
1580426870.046,395851
1580426880.046,395852
1580426890.046,395853
1580426900.046,395853
1580426910.046,395853
1580426920.049,395854
1580426930.048,395856
1580426940.046,395856
1580426950.045,395857
1580426960.045,395857
1580426970.046,395857
1580426980.046,395858
1580426990.047,395859
1580427000.046,395859
1580427010.046,395860
1580427020.046,395860
1580427030.047,395860
1580427040.046,395860
1580427050.046,395860
1580427060.046,395861
1580427070.046,395861
1580427080.046,395861
1580427090.046,395862
1580427100.046,395862
1580427110.046,395862
1580427120.046,395865
1580427130.046,395866
1580427140.046,395866
1580427150.046,395866
1580427160.046,395866
1580427170.046,395866
1580427180.046,395867
1580427190.047,395868
1580427200.046,395868
1580427210.046,395870
1580427220.046,395870
1580427230.046,395871
1580427240.048,395871
1580427250.046,395872
1580427260.046,395874
1580427270.046,395875
1580427280.046,395875
1580427290.046,395875
1580427300.046,395875
1580427310.046,395875
1580427320.047,395876
1580427330.046,395876
1580427340.046,395876
1580427350.045,395877
1580427360.046,395878
1580427370.046,395879
1580427380.047,395880
1580427390.046,395880
1580427400.046,395882
1580427410.046,395883
1580427420.046,395884
1580427430.046,395886
1580427440.046,395887
1580427450.046,395888
1580427460.046,395889
1580427470.046,395890
1580427480.046,395892
1580427490.046,395892
1580427500.046,395893
1580427510.046,395894
1580427520.046,395894
1580427530.046,395894
1580427540.046,395894
1580427550.046,395895
1580427560.046,395896
1580427570.046,395896
1580427580.046,395896
1580427590.045,395898
1580427600.045,395899
1580427610.046,395899
1580427620.046,395900
1580427630.047,395901
1580427640.046,395901
1580427650.046,395901
1580427660.046,395902
1580427670.046,395903
1580427680.047,395904
1580427690.046,395904
1580427700.046,395904
1580427710.046,395905
1580427720.046,395905
1580427730.046,395905
1580427740.046,395905
1580427750.046,395906
1580427760.046,395906
1580427770.046,395906
1580427780.045,395907
1580427790.046,395908
1580427800.047,395909
1580427810.046,395909
1580427820.046,395909
1580427830.046,395909
1580427840.046,395910
1580427850.046,395912
1580427860.045,395913
1580427870.047,395913
1580427880.046,395913
1580427890.046,395917
1580427900.046,395919
1580427910.046,395920
1580427920.046,395920
1580427930.045,395921
1580427940.046,395921
1580427950.046,395922
1580427960.046,395922
1580427970.046,395922
1580427980.046,395923
1580427990.046,395923
1580428000.047,395924
1580428010.046,395926
1580428020.046,395929
1580428030.046,395929
1580428040.047,395930
1580428050.046,395930
1580428060.046,395931
1580428070.046,395932
1580428080.046,395933
1580428090.046,395934
1580428100.045,395936
1580428110.046,395937
1580428120.046,395938
1580428130.046,395938
1580428140.046,395938
1580428150.046,395938
1580428160.046,395938
1580428170.046,395938
1580428180.046,395939
1580428190.048,395940
1580428200.046,395940
1580428210.047,395940
1580428220.046,395940
1580428230.046,395941
1580428240.046,395942
1580428250.046,395944
1580428260.048,395944
1580428270.046,395945
1580428280.046,395946
1580428290.046,395946
1580428300.046,395946
1580428310.046,395948
1580428320.046,395948
1580428330.046,395950
1580428340.046,395951
1580428350.046,395952
1580428360.046,395952
1580428370.046,395954
1580428380.046,395954
1580428390.046,395954
1580428400.046,395956
1580428410.046,395957
1580428420.047,395957
1580428430.046,395957
1580428440.050,395957
1580428450.047,395957
1580428460.046,395957
1580428470.049,395958
1580428480.047,395958
1580428490.046,395958
1580428500.047,395958
1580428510.046,395959
1580428520.046,395959
1580428530.046,395959
1580428540.046,395959
1580428550.046,395960
1580428560.046,395961
1580428570.046,395962
1580428580.046,395962
1580428590.046,395962
1580428600.046,395964
1580428610.046,395964
1580428620.046,395965
1580428630.046,395965
1580428640.046,395965
1580428650.045,395967
1580428660.046,395967
1580428670.046,395968
1580428680.046,395969
1580428690.046,395970
1580428700.045,395971
1580428710.046,395971
1580428720.048,395973
1580428730.045,395973
1580428740.046,395975
1580428750.046,395976
1580428760.046,395976
1580428770.046,395976
1580428780.048,395976
1580428790.046,395976
1580428800.046,395976
1580428810.046,395976
1580428820.046,395977
1580428830.046,395978
1580428840.046,395980
1580428850.046,395980
1580428860.046,395980
1580428870.046,395982
1580428880.046,395983
1580428890.047,395984
1580428900.046,395984
1580428910.046,395984
1580428920.046,395984
1580428930.046,395985
1580428940.047,395986
1580428950.045,395987
1580428960.046,395987
1580428970.046,395988
1580428980.046,395989
1580428990.047,395989
1580429000.046,395989
1580429010.046,395990
1580429020.046,395990
1580429030.046,395990
1580429040.047,395990
1580429050.045,395991
1580429060.046,395993
1580429070.046,395994
1580429080.046,395994
1580429090.046,395994
1580429100.046,395994
1580429110.046,395996
1580429120.046,395996
1580429130.046,395996
1580429140.046,395996
1580429150.046,395997
1580429160.046,395997
1580429170.048,395998
1580429180.046,395998
1580429190.046,396000
1580429200.046,396000
1580429210.046,396000
1580429220.046,396000
1580429230.046,396000
1580429240.046,396002
1580429250.049,396003
1580429260.046,396004
1580429270.046,396004
1580429280.046,396004
1580429290.046,396004
1580429300.046,396005
1580429310.046,396005
1580429320.046,396005
1580429330.046,396005
1580429340.046,396005
1580429350.046,396006
1580429360.048,396006
1580429370.046,396006
1580429380.046,396007
1580429390.047,396007
1580429400.047,396007
1580429410.046,396008
1580429420.046,396010
1580429430.046,396011
1580429440.046,396011
1580429450.046,396012
1580429460.046,396012
1580429470.046,396012
1580429480.046,396014
1580429490.046,396016
1580429500.046,396017
1580429510.046,396018
1580429520.046,396018
1580429530.046,396020
1580429540.046,396021
1580429550.046,396022
1580429560.046,396022
1580429570.046,396022
1580429580.047,396022
1580429590.046,396022
1580429600.047,396024
1580429610.046,396025
1580429620.046,396025
1580429630.046,396025
1580429640.046,396025
1580429650.046,396026
1580429660.046,396026
1580429670.046,396026
1580429680.046,396026
1580429690.046,396027
1580429700.047,396028
1580429710.047,396029
1580429720.046,396029
1580429730.046,396030
1580429740.046,396030
1580429750.045,396031
1580429760.046,396031
1580429770.045,396033
1580429780.046,396034
1580429790.046,396034
1580429800.046,396035
1580429810.046,396036
1580429820.046,396036
1580429830.046,396036
1580429840.046,396038
1580429850.046,396041
1580429860.047,396042
1580429870.046,396042
1580429880.046,396042
1580429890.046,396043
1580429900.046,396044
1580429910.046,396044
1580429920.046,396044
1580429930.046,396046
1580429940.046,396046
1580429950.046,396046
1580429960.046,396048
1580429970.046,396050
1580429980.046,396051
1580429990.046,396052
1580430000.046,396052
1580430010.047,396053
1580430020.046,396053
1580430030.046,396053
1580430040.046,396054
1580430050.047,396056
1580430060.046,396059
1580430070.046,396060
1580430080.046,396060
1580430090.046,396060
1580430100.046,396060
1580430110.046,396062
1580430120.046,396064
1580430130.046,396065
1580430140.046,396066
1580430150.046,396066
1580430160.046,396066
1580430170.046,396066
1580430180.046,396066
1580430190.046,396066
1580430200.046,396066
1580430210.046,396066
1580430220.046,396066
1580430230.046,396068
1580430240.046,396068
1580430250.045,396068
1580430260.047,396068
1580430270.046,396068
1580430280.046,396069
1580430290.046,396070
1580430300.046,396070
1580430310.046,396072
1580430320.046,396074
1580430330.046,396074
1580430340.047,396075
1580430350.045,396075
1580430360.046,396077
1580430370.045,396078
1580430380.046,396078
1580430390.046,396079
1580430400.045,396080
1580430410.046,396080
1580430420.046,396080
1580430430.046,396083
