epoch,value
1579921279.433,51340
1579921289.415,51340
1579921299.415,51340
1579921309.413,51340
1579921319.413,51340
1579921329.414,51340
1579921339.413,51340
1579921349.413,51340
1579921359.413,51340
1579921369.413,51340
1579921379.414,51340
1579921389.413,51340
1579921399.414,51340
1579921409.413,51340
1579921419.413,51340
1579921429.413,51340
1579921439.415,51340
1579921449.413,51340
1579921459.413,51340
1579921469.413,51340
1579921479.413,51340
1579921489.413,51341
1579921499.414,51341
1579921509.413,51341
1579921519.413,51341
1579921529.413,51341
1579921539.413,51341
1579921549.413,51341
1579921559.413,51341
1579921569.414,51341
1579921579.413,51341
1579921589.413,51341
1579921599.413,51341
1579921609.413,51342
1579921619.418,51342
1579921629.414,51342
1579921639.413,51342
1579921649.413,51342
1579921659.413,51342
1579921669.415,51342
1579921679.413,51342
1579921689.415,51342
1579921699.413,51343
1579921709.413,51344
1579921719.413,51344
1579921729.413,51344
1579921739.413,51345
1579921749.413,51345
1579921759.414,51345
1579921769.413,51345
1579921779.413,51345
1579921789.413,51345
1579921799.413,51345
1579921809.415,51345
1579921819.413,51345
1579921829.413,51345
1579921839.414,51345
1579921849.415,51345
1579921859.413,51345
1579921869.413,51345
1579921879.416,51345
1579921889.413,51346
1579921899.413,51346
1579921909.413,51346
1579921919.413,51347
1579921929.413,51350
1579921939.416,51350
1579921949.414,51350
1579921959.415,51350
1579921969.413,51350
1579921979.413,51350
1579921989.414,51350
1579921999.413,51350
1579922009.413,51350
1579922019.413,51350
1579922029.413,51350
1579922039.415,51350
1579922049.417,51350
1579922059.413,51350
1579922069.413,51350
1579922079.413,51350
1579922089.413,51350
1579922099.414,51350
1579922109.413,51350
1579922119.413,51350
1579922129.413,51351
1579922139.413,51351
1579922149.413,51351
1579922159.413,51351
1579922169.414,51351
1579922179.414,51351
1579922189.414,51351
1579922199.413,51351
1579922209.413,51352
1579922219.414,51352
1579922229.413,51352
1579922239.413,51352
1579922249.413,51352
1579922259.414,51352
1579922269.415,51352
1579922279.413,51352
1579922289.413,51352
1579922299.414,51352
1579922309.415,51352
1579922319.414,51352
1579922329.413,51352
1579922339.413,51352
1579922349.413,51352
1579922359.413,51352
1579922369.413,51352
1579922379.413,51352
1579922389.413,51352
1579922399.413,51353
1579922409.414,51353
1579922419.415,51353
1579922429.413,51353
1579922439.413,51353
1579922449.413,51353
1579922459.415,51353
1579922469.415,51353
1579922479.414,51353
1579922489.413,51355
1579922499.415,51355
1579922509.414,51356
1579922519.413,51356
1579922529.413,51356
1579922539.413,51356
1579922549.414,51357
1579922559.413,51357
1579922569.413,51357
1579922579.413,51357
1579922589.413,51357
1579922599.413,51357
1579922609.413,51357
1579922619.413,51357
1579922629.416,51357
1579922639.413,51357
1579922649.414,51357
1579922659.415,51357
1579922669.413,51357
1579922679.413,51357
1579922689.413,51357
1579922699.413,51357
1579922709.414,51357
1579922719.414,51357
1579922729.413,51357
1579922739.413,51358
1579922749.413,51358
1579922759.416,51359
1579922769.413,51359
1579922779.413,51359
1579922789.413,51359
1579922799.414,51359
1579922809.416,51359
1579922819.416,51359
1579922829.415,51359
1579922839.414,51359
1579922849.415,51359
1579922859.413,51359
1579922869.413,51359
1579922879.413,51359
1579922889.415,51359
1579922899.416,51359
1579922909.414,51359
1579922919.414,51359
1579922929.413,51359
1579922939.413,51359
1579922949.413,51359
1579922959.414,51359
1579922969.414,51359
1579922979.413,51359
1579922989.413,51360
1579922999.414,51360
1579923009.413,51360
1579923019.413,51360
1579923029.413,51360
1579923039.414,51360
1579923049.414,51360
1579923059.413,51360
1579923069.414,51360
1579923079.413,51360
1579923089.413,51361
1579923099.414,51361
1579923109.414,51361
1579923119.416,51361
1579923129.413,51361
1579923139.413,51361
1579923149.414,51361
1579923159.413,51361
1579923169.414,51361
1579923179.413,51361
1579923189.413,51361
1579923199.413,51362
1579923209.413,51362
1579923219.413,51362
1579923229.413,51362
1579923239.413,51363
1579923249.414,51364
1579923259.413,51364
1579923269.413,51365
1579923279.416,51366
1579923289.413,51366
1579923299.413,51366
1579923309.413,51366
1579923319.413,51366
1579923329.414,51366
1579923339.413,51366
1579923349.414,51366
1579923359.414,51366
1579923369.413,51366
1579923379.416,51366
1579923389.413,51366
1579923399.413,51366
1579923409.413,51366
1579923419.414,51366
1579923429.415,51366
1579923439.413,51367
1579923449.413,51367
1579923459.413,51367
1579923469.414,51367
1579923479.413,51367
1579923489.413,51367
1579923499.413,51367
1579923509.413,51367
1579923519.414,51367
1579923529.413,51367
1579923539.413,51367
1579923549.413,51367
1579923559.414,51367
1579923569.415,51367
1579923579.413,51367
1579923589.413,51367
1579923599.415,51367
1579923609.413,51367
1579923619.413,51367
1579923629.413,51367
1579923639.413,51367
1579923649.413,51367
1579923659.413,51367
1579923669.413,51367
1579923679.413,51367
1579923689.414,51367
1579923699.413,51367
1579923709.413,51367
1579923719.413,51367
1579923729.413,51367
1579923739.413,51367
1579923749.413,51367
1579923759.413,51367
1579923769.413,51367
1579923779.416,51367
1579923789.413,51367
1579923799.416,51367
1579923809.417,51367
1579923819.415,51368
1579923829.413,51368
1579923839.413,51368
1579923849.415,51368
1579923859.413,51368
1579923869.413,51368
1579923879.413,51368
1579923889.413,51368
1579923899.414,51368
1579923909.413,51368
1579923919.413,51368
1579923929.413,51368
1579923939.413,51368
1579923949.416,51368
1579923959.413,51368
1579923969.414,51368
1579923979.413,51368
1579923989.415,51368
1579923999.413,51368
1579924009.413,51368
1579924019.414,51368
1579924029.414,51368
1579924039.414,51368
