epoch,value
1580485179.469,55260
1580485189.452,55261
1580485199.453,55261
1580485209.451,55261
1580485219.451,55264
1580485229.452,55264
1580485239.451,55264
1580485249.453,55264
1580485259.451,55264
1580485269.451,55264
1580485279.451,55264
1580485289.453,55264
1580485299.451,55265
1580485309.451,55265
1580485319.451,55265
1580485329.452,55265
1580485339.452,55265
1580485349.452,55265
1580485359.452,55265
1580485369.452,55266
1580485379.451,55266
1580485389.451,55266
1580485399.452,55266
1580485409.451,55266
1580485419.452,55266
1580485429.452,55266
1580485439.453,55267
1580485449.451,55269
1580485459.452,55269
1580485469.455,55270
1580485479.452,55270
1580485489.451,55270
1580485499.451,55270
1580485509.452,55270
1580485519.451,55270
1580485529.453,55270
1580485539.453,55271
1580485549.451,55271
1580485559.451,55271
1580485569.451,55271
1580485579.451,55271
1580485589.452,55271
1580485599.452,55273
1580485609.451,55273
1580485619.455,55273
1580485629.454,55274
1580485639.451,55276
1580485649.451,55276
1580485659.453,55276
1580485669.452,55276
1580485679.453,55276
1580485689.451,55276
1580485699.453,55276
1580485709.453,55276
1580485719.452,55276
1580485729.452,55276
1580485739.452,55276
1580485749.451,55276
1580485759.451,55276
1580485769.451,55276
1580485779.451,55276
1580485789.451,55276
1580485799.451,55276
1580485809.451,55276
1580485819.453,55276
1580485829.452,55277
1580485839.454,55277
1580485849.452,55277
1580485859.452,55278
1580485869.452,55278
1580485879.451,55278
1580485889.451,55278
1580485899.453,55278
1580485909.453,55278
1580485919.454,55278
1580485929.451,55278
1580485939.452,55278
1580485949.452,55278
1580485959.452,55278
1580485969.453,55278
1580485979.452,55278
1580485989.451,55278
1580485999.451,55278
1580486009.454,55278
1580486019.453,55278
1580486029.451,55278
1580486039.451,55278
1580486049.451,55278
1580486059.452,55278
1580486069.451,55278
1580486079.451,55278
1580486089.452,55278
1580486099.454,55280
1580486109.452,55280
1580486119.451,55280
1580486129.452,55280
1580486139.452,55280
1580486149.451,55281
1580486159.453,55282
1580486169.451,55282
1580486179.451,55282
1580486189.451,55282
1580486199.451,55282
1580486209.452,55282
1580486219.451,55282
1580486229.451,55282
1580486239.452,55282
1580486249.452,55282
1580486259.452,55282
1580486269.451,55282
1580486279.451,55282
1580486289.451,55282
1580486299.452,55282
1580486309.453,55282
1580486319.452,55282
1580486329.451,55282
1580486339.452,55284
1580486349.451,55285
1580486359.456,55286
1580486369.452,55286
1580486379.453,55286
1580486389.452,55286
1580486399.451,55288
1580486409.452,55288
1580486419.452,55290
1580486429.452,55290
1580486439.452,55290
1580486449.452,55290
1580486459.453,55290
1580486469.451,55291
1580486479.451,55291
1580486489.451,55291
1580486499.452,55291
1580486509.452,55291
1580486519.452,55291
1580486529.451,55291
1580486539.452,55291
1580486549.452,55293
1580486559.452,55293
1580486569.452,55293
1580486579.451,55293
1580486589.451,55293
1580486599.451,55293
1580486609.451,55293
1580486619.452,55293
1580486629.451,55293
1580486639.452,55293
1580486649.454,55293
1580486659.451,55293
1580486669.454,55294
1580486679.452,55294
1580486689.453,55294
1580486699.451,55296
1580486709.451,55296
1580486719.452,55296
1580486729.452,55296
1580486739.451,55296
