epoch,value
1580543490.909,0
1580543500.909,0
1580543510.909,0
1580543520.913,0
1580543530.909,0
1580543540.909,4
1580543550.909,5
1580543560.909,7
1580543570.909,8
1580543580.909,12
1580543590.909,14
1580543600.909,21
1580543610.909,24
1580543620.909,33
1580543630.909,33
1580543640.909,33
1580543650.909,37
1580543660.909,38
1580543670.909,38
1580543680.909,50
1580543690.909,50
1580543700.909,55
1580543710.909,55
1580543720.909,56
1580543730.909,56
1580543740.909,70
1580543750.909,71
1580543760.909,74
1580543770.909,74
1580543780.909,76
1580543790.909,77
1580543800.909,77
1580543810.909,77
1580543820.909,78
1580543830.909,78
1580543840.909,78
1580543850.909,78
1580543860.909,78
1580543870.909,78
1580543880.909,78
1580543890.909,78
1580543900.909,78
1580543910.909,78
1580543920.909,78
1580543930.909,78
1580543940.909,78
1580543950.909,78
1580543960.909,78
1580543970.909,78
1580543980.909,79
1580543990.909,79
1580544000.909,79
1580544010.909,79
1580544020.915,79
1580544030.909,79
1580544040.909,79
1580544050.909,79
1580544060.909,79
1580544070.909,79
1580544080.913,79
1580544090.909,79
1580544100.909,79
1580544110.909,79
1580544120.909,79
1580544130.909,79
1580544140.909,79
1580544150.909,79
1580544160.909,79
1580544170.909,79
1580544180.909,79
1580544190.909,79
1580544200.909,79
1580544210.909,79
1580544220.909,79
1580544230.909,79
1580544240.909,79
1580544250.909,80
1580544260.909,80
1580544270.909,80
1580544280.909,80
1580544290.915,80
1580544300.909,80
1580544310.909,80
1580544320.909,80
1580544330.909,80
1580544340.909,80
1580544350.909,80
1580544360.909,80
1580544370.909,80
1580544380.909,80
1580544390.909,80
1580544400.909,80
1580544410.909,80
1580544420.909,80
1580544430.909,80
1580544440.909,80
1580544450.909,80
1580544460.909,80
1580544470.909,80
1580544480.909,80
1580544490.909,80
1580544500.909,80
1580544510.909,80
1580544520.909,80
1580544530.909,80
1580544540.909,80
1580544550.909,80
1580544560.909,80
1580544570.909,80
1580544580.909,80
1580544590.909,80
1580544600.909,80
1580544610.909,80
1580544620.909,80
1580544630.909,80
1580544640.909,81
1580544650.909,81
1580544660.909,81
1580544670.909,81
1580544680.909,81
1580544690.909,81
1580544700.909,81
1580544710.909,81
1580544720.909,81
1580544730.909,81
1580544740.909,81
1580544750.909,81
1580544760.909,81
1580544770.909,81
1580544780.909,81
1580544790.909,81
1580544800.909,81
1580544810.909,81
1580544820.909,81
1580544830.909,81
1580544840.909,81
1580544850.909,81
1580544860.909,81
1580544870.909,81
1580544880.909,81
1580544890.909,81
1580544900.909,81
1580544910.909,81
1580544920.909,81
1580544930.909,81
1580544940.909,81
1580544950.909,81
1580544960.909,81
1580544970.909,81
1580544980.909,81
1580544990.909,81
1580545000.909,81
1580545010.909,81
1580545020.909,81
1580545030.909,81
1580545040.909,81
1580545050.909,81
1580545060.909,81
1580545070.909,81
1580545080.909,81
1580545090.909,81
1580545100.909,81
1580545110.909,82
1580545120.909,82
1580545130.909,82
1580545140.909,82
1580545150.909,82
1580545160.909,82
1580545170.909,82
1580545180.909,82
1580545190.909,82
1580545200.909,82
1580545210.909,82
1580545220.909,82
1580545230.909,82
1580545240.909,82
1580545250.909,82
1580545260.909,82
1580545270.909,82
1580545280.909,82
1580545290.909,82
1580545300.909,82
1580545310.909,82
1580545320.909,82
1580545330.909,82
1580545340.909,82
1580545350.909,82
1580545360.909,82
1580545370.909,82
1580545380.909,82
1580545390.909,82
1580545400.909,82
1580545410.909,82
1580545420.909,82
1580545430.909,82
1580545440.909,82
1580545450.909,83
1580545460.909,83
1580545470.909,83
1580545480.909,83
1580545490.912,83
1580545500.909,83
1580545510.909,83
1580545520.909,83
1580545530.909,83
1580545540.909,83
1580545550.911,83
1580545560.909,83
1580545570.909,83
1580545580.913,83
1580545590.909,83
1580545600.909,83
1580545610.909,83
1580545620.909,83
1580545630.910,83
1580545640.909,83
1580545650.909,83
1580545660.909,83
1580545670.909,83
1580545680.909,83
1580545690.909,84
1580545700.909,84
1580545710.909,84
1580545720.909,84
1580545730.909,84
1580545740.909,84
1580545750.915,84
1580545760.909,84
1580545770.909,84
1580545780.909,84
1580545790.909,84
1580545800.909,84
1580545810.909,84
1580545820.909,84
1580545830.909,84
1580545840.909,84
1580545850.909,84
1580545860.909,84
1580545870.909,84
1580545880.909,84
1580545890.909,84
1580545900.909,84
1580545910.909,84
1580545920.909,84
1580545930.909,84
1580545940.909,84
1580545950.909,84
1580545960.909,84
1580545970.909,84
1580545980.909,84
1580545990.909,84
1580546000.909,84
1580546010.909,84
1580546020.909,84
1580546030.909,84
1580546040.909,84
1580546050.909,84
1580546060.909,84
1580546070.909,84
1580546080.909,84
1580546090.909,84
1580546100.909,85
1580546110.909,85
1580546120.909,85
1580546130.909,85
1580546140.909,85
1580546150.909,85
1580546160.909,85
1580546170.909,85
1580546180.909,85
1580546190.909,85
1580546200.909,85
1580546210.909,85
1580546220.909,85
1580546230.909,85
1580546240.909,85
1580546250.909,85
1580546260.909,85
1580546270.909,85
1580546280.909,85
1580546290.909,86
1580546300.909,86
1580546310.909,86
1580546320.909,86
1580546330.909,86
1580546340.909,86
1580546350.915,86
1580546360.909,86
1580546370.909,86
1580546380.909,86
1580546390.909,86
1580546400.909,86
1580546410.909,86
1580546420.909,86
1580546430.909,86
1580546440.909,86
1580546450.915,86
1580546460.909,86
1580546470.909,86
1580546480.909,86
1580546490.915,86
1580546500.909,86
1580546510.909,86
1580546520.909,86
1580546530.909,86
1580546540.915,86
1580546550.909,87
1580546560.909,87
1580546570.909,87
1580546580.909,87
1580546590.909,87
1580546600.909,87
1580546610.909,87
1580546620.909,87
1580546630.909,87
1580546640.909,87
1580546650.909,87
1580546660.909,87
1580546670.909,87
1580546680.909,87
1580546690.909,87
1580546700.909,87
1580546710.909,88
1580546720.909,88
1580546730.909,88
1580546740.909,88
1580546750.909,88
1580546760.909,88
1580546770.909,88
1580546780.909,88
1580546790.909,88
1580546800.909,88
1580546810.909,88
1580546820.909,88
1580546830.909,88
1580546840.909,89
1580546850.909,89
1580546860.909,89
1580546870.909,89
1580546880.909,89
1580546890.909,89
1580546900.909,89
1580546910.909,89
1580546920.909,89
1580546930.911,89
1580546940.909,89
1580546950.909,89
1580546960.915,89
1580546970.909,89
1580546980.909,89
1580546990.909,89
1580547000.909,89
1580547010.909,89
1580547020.909,89
1580547030.909,89
1580547040.909,89
1580547050.909,89
1580547060.909,89
1580547070.909,89
1580547080.909,89
1580547090.909,89
1580547100.909,89
1580547110.909,89
1580547120.909,89
1580547130.909,89
1580547140.909,89
1580547150.910,89
1580547160.909,89
1580547170.909,89
1580547180.909,89
1580547190.909,89
1580547200.909,90
1580547210.909,90
1580547220.909,90
1580547230.909,90
1580547240.909,90
1580547250.909,90
1580547260.909,90
1580547270.909,90
1580547280.909,90
1580547290.909,90
1580547300.909,90
1580547310.909,90
1580547320.909,90
1580547330.909,90
1580547340.909,90
1580547350.909,90
1580547360.909,90
1580547370.909,90
1580547380.909,90
1580547390.909,90
1580547400.909,90
1580547410.909,90
1580547420.909,90
1580547430.909,90
1580547440.909,90
1580547450.909,90
1580547460.909,90
1580547470.909,90
1580547480.909,90
1580547490.909,90
1580547500.909,90
1580547510.909,90
1580547520.909,90
1580547530.909,90
1580547540.909,90
1580547550.909,90
1580547560.909,90
1580547570.909,90
1580547580.909,90
1580547590.909,90
1580547600.909,90
1580547610.909,90
1580547620.909,90
1580547630.909,90
1580547640.909,90
1580547650.909,90
1580547660.909,90
1580547670.909,90
1580547680.909,90
1580547690.909,90
1580547700.909,91
1580547710.909,91
1580547720.909,91
1580547730.909,91
1580547740.909,91
1580547750.909,91
1580547760.909,91
1580547770.909,91
1580547780.909,91
1580547790.909,91
1580547800.909,91
1580547810.909,91
1580547820.909,91
1580547830.915,91
1580547840.909,91
1580547850.909,91
1580547860.909,91
1580547870.909,91
1580547880.909,91
1580547890.909,91
1580547900.909,91
1580547910.909,91
1580547920.909,92
1580547930.909,92
1580547940.909,92
1580547950.909,92
1580547960.909,92
1580547970.909,92
1580547980.909,92
1580547990.909,92
1580548000.909,92
1580548010.915,92
1580548020.909,92
1580548030.909,92
1580548040.909,92
1580548050.909,92
1580548060.909,92
1580548070.909,92
1580548080.909,92
1580548090.909,92
1580548100.909,92
1580548110.909,92
1580548120.909,92
1580548130.913,92
1580548140.909,92
1580548150.909,92
1580548160.909,92
1580548170.909,92
1580548180.909,93
1580548190.909,93
1580548200.909,93
1580548210.909,93
1580548220.909,93
1580548230.909,93
1580548240.909,93
1580548250.909,93
1580548260.909,93
1580548270.909,93
1580548280.909,93
1580548290.909,93
1580548300.909,93
1580548310.909,93
1580548320.909,93
1580548330.909,93
1580548340.909,93
1580548350.909,93
1580548360.909,93
1580548370.909,93
1580548380.909,93
1580548390.909,93
1580548400.909,93
1580548410.909,93
1580548420.909,93
1580548430.909,94
1580548440.909,94
1580548450.909,94
1580548460.909,94
1580548470.909,94
1580548480.909,94
1580548490.909,94
1580548500.909,94
1580548510.909,94
1580548520.909,94
1580548530.909,94
1580548540.909,94
1580548550.909,94
1580548560.909,94
1580548570.910,94
1580548580.909,94
1580548590.909,94
1580548600.909,94
1580548610.909,94
1580548620.909,94
1580548630.909,94
1580548640.909,94
1580548650.909,94
1580548660.909,94
1580548670.909,94
1580548680.909,94
1580548690.909,94
1580548700.915,94
1580548710.909,94
1580548720.909,94
1580548730.909,94
1580548740.909,94
1580548750.909,94
1580548760.909,94
1580548770.909,94
1580548780.909,94
1580548790.909,94
1580548800.909,94
1580548810.909,94
1580548820.909,94
1580548830.909,94
1580548840.912,94
1580548850.909,94
1580548860.909,94
1580548870.909,94
1580548880.909,95
1580548890.909,95
1580548900.909,95
1580548910.909,95
1580548920.909,95
1580548930.909,95
1580548940.909,95
1580548950.909,95
1580548960.909,95
1580548970.909,95
1580548980.909,95
1580548990.909,95
1580549000.909,95
1580549010.909,95
1580549020.909,95
1580549030.909,95
1580549040.909,95
1580549050.909,95
1580549060.909,95
1580549070.909,95
1580549080.909,95
1580549090.909,95
1580549100.909,95
1580549110.909,95
1580549120.909,95
1580549130.909,95
1580549140.909,95
1580549150.909,95
1580549160.909,95
1580549170.909,95
1580549180.909,95
1580549190.909,95
1580549200.909,95
1580549210.909,95
1580549220.909,95
1580549230.909,96
1580549240.909,96
1580549250.909,96
1580549260.909,96
1580549270.909,96
1580549280.909,96
1580549290.909,96
1580549300.909,96
1580549310.909,96
1580549320.909,96
1580549330.909,96
1580549340.909,96
1580549350.909,96
1580549360.909,96
1580549370.909,96
1580549380.909,96
1580549390.909,97
1580549400.909,97
1580549410.909,97
1580549420.909,97
1580549430.909,97
1580549440.909,97
1580549450.909,97
1580549460.909,97
1580549470.909,97
1580549480.909,97
1580549490.909,97
1580549500.909,98
1580549510.909,98
1580549520.909,98
1580549530.909,98
1580549540.909,98
1580549550.909,98
1580549560.909,98
1580549570.909,98
1580549580.909,98
1580549590.909,98
1580549600.909,98
1580549610.909,98
1580549620.909,98
1580549630.909,98
1580549640.909,98
1580549650.909,98
1580549660.909,98
1580549670.909,98
1580549680.909,98
1580549690.909,99
1580549700.909,99
1580549710.909,99
1580549720.909,99
1580549730.909,99
1580549740.909,99
1580549750.909,99
1580549760.909,99
1580549770.909,99
1580549780.909,99
1580549790.909,99
1580549800.909,99
1580549810.909,99
1580549820.909,99
1580549830.909,99
1580549840.909,99
1580549850.909,99
1580549860.909,99
1580549870.909,99
1580549880.909,99
1580549890.909,99
1580549900.909,99
1580549910.909,99
1580549920.909,99
1580549930.909,99
1580549940.909,99
1580549950.909,100
1580549960.909,100
1580549970.909,100
1580549980.909,100
1580549990.909,100
1580550000.909,100
1580550010.909,100
1580550020.909,100
1580550030.909,100
1580550040.909,100
1580550050.909,100
1580550060.909,100
1580550070.909,100
1580550080.909,100
1580550090.909,100
1580550100.909,100
1580550110.909,100
1580550120.913,100
1580550130.909,100
1580550140.909,100
1580550150.909,100
1580550160.909,100
1580550170.909,100
1580550180.909,100
1580550190.909,100
1580550200.909,100
1580550210.909,100
1580550220.909,100
1580550230.909,100
1580550240.909,100
1580550250.909,100
1580550260.909,100
1580550270.909,100
1580550280.909,100
1580550290.909,100
1580550300.909,100
1580550310.909,100
1580550320.909,101
1580550330.909,101
1580550340.909,101
1580550350.909,101
1580550360.909,101
1580550370.909,101
1580550380.909,101
1580550390.909,101
1580550400.909,101
1580550410.909,101
1580550420.909,101
1580550430.909,101
1580550440.909,101
1580550450.909,101
1580550460.909,101
1580550470.909,101
1580550480.909,101
1580550490.909,101
1580550500.909,101
1580550510.909,101
1580550520.909,101
1580550530.909,101
1580550540.909,101
1580550550.909,101
1580550560.909,101
1580550570.909,101
1580550580.909,101
1580550590.909,101
1580550600.909,101
1580550610.909,101
1580550620.909,101
1580550630.909,101
1580550640.909,102
1580550650.909,102
1580550660.909,102
1580550670.909,102
1580550680.909,102
1580550690.909,102
1580550700.909,102
1580550710.909,102
1580550720.909,102
1580550730.909,102
1580550740.909,102
1580550750.909,102
1580550760.909,102
1580550770.909,102
1580550780.909,102
1580550790.909,102
1580550800.909,102
1580550810.909,102
1580550820.909,102
1580550830.909,102
1580550840.909,102
1580550850.909,102
1580550860.909,102
1580550870.909,102
1580550880.909,102
1580550890.909,102
1580550900.909,102
1580550910.909,102
1580550920.909,102
1580550930.909,102
1580550940.909,102
1580550950.909,102
1580550960.909,102
1580550970.909,102
1580550980.909,102
1580550990.909,102
1580551000.909,102
1580551010.909,102
1580551020.909,102
1580551030.909,102
1580551040.909,102
1580551050.909,102
1580551060.909,102
1580551070.909,102
1580551080.909,102
1580551090.913,102
1580551100.909,102
1580551110.909,102
1580551120.909,102
1580551130.909,102
1580551140.909,102
1580551150.909,102
1580551160.909,102
1580551170.909,102
1580551180.909,102
1580551190.909,102
1580551200.909,102
1580551210.909,103
1580551220.909,103
1580551230.909,103
1580551240.909,103
1580551250.909,103
1580551260.909,103
1580551270.909,103
1580551280.909,103
1580551290.909,103
1580551300.909,103
1580551310.909,103
1580551320.909,103
1580551330.909,103
1580551340.909,103
1580551350.915,103
1580551360.909,103
1580551370.909,103
1580551380.909,103
1580551390.909,103
1580551400.909,103
1580551410.909,103
1580551420.909,103
1580551430.909,103
1580551440.909,103
1580551450.913,103
1580551460.909,103
1580551470.915,103
1580551480.909,103
1580551490.909,103
1580551500.909,103
1580551510.909,103
1580551520.909,103
1580551530.909,103
1580551540.909,103
1580551550.909,103
1580551560.909,103
1580551570.909,103
1580551580.909,103
1580551590.909,104
1580551600.909,104
1580551610.909,104
1580551620.909,104
