epoch,value
1579786909.768,236442
1579786919.747,236443
1579786929.747,236443
1579786939.747,236443
1579786949.747,236444
1579786959.747,236444
1579786969.747,236444
1579786979.747,236444
1579786989.747,236444
1579786999.747,236445
1579787009.747,236445
1579787019.747,236445
1579787029.747,236446
1579787039.747,236446
1579787049.747,236446
1579787059.748,236447
1579787069.747,236447
1579787079.747,236447
1579787089.747,236447
1579787099.747,236447
1579787109.747,236448
1579787119.747,236448
1579787129.747,236450
1579787139.747,236450
1579787149.747,236450
1579787159.747,236450
1579787169.747,236450
1579787179.748,236451
1579787189.747,236452
1579787199.747,236453
1579787209.747,236454
1579787219.747,236454
1579787229.749,236455
1579787239.747,236456
1579787249.748,236456
1579787259.747,236458
1579787269.749,236459
1579787279.747,236459
1579787289.747,236460
1579787299.747,236460
1579787309.747,236461
1579787319.747,236461
1579787329.747,236461
1579787339.747,236464
1579787349.747,236464
1579787359.747,236465
1579787369.747,236465
1579787379.747,236465
1579787389.748,236466
1579787399.747,236467
1579787409.749,236468
1579787419.747,236471
1579787429.747,236472
1579787439.747,236473
1579787449.747,236473
1579787459.747,236473
1579787469.747,236474
1579787479.747,236474
1579787489.747,236476
1579787499.747,236476
1579787509.747,236476
1579787519.747,236476
1579787529.747,236476
1579787539.747,236477
1579787549.747,236478
1579787559.747,236478
1579787569.747,236478
1579787579.747,236479
1579787589.749,236480
1579787599.747,236481
1579787609.747,236481
1579787619.747,236481
1579787629.747,236483
1579787639.747,236483
1579787649.747,236484
1579787659.749,236484
1579787669.747,236485
1579787679.747,236486
1579787689.747,236486
1579787699.747,236486
1579787709.747,236487
1579787719.747,236487
1579787729.748,236488
1579787739.747,236489
1579787749.748,236490
1579787759.748,236492
1579787769.747,236493
1579787779.747,236493
1579787789.749,236494
1579787799.747,236494
1579787809.747,236494
1579787819.747,236494
1579787829.749,236495
1579787839.747,236495
1579787849.747,236497
1579787859.747,236497
1579787869.747,236498
1579787879.747,236498
1579787889.747,236499
1579787899.747,236499
1579787909.747,236500
1579787919.747,236502
1579787929.747,236503
1579787939.749,236503
1579787949.747,236505
1579787959.747,236505
1579787969.747,236505
1579787979.748,236505
1579787989.747,236506
1579787999.748,236507
1579788009.747,236507
1579788019.747,236508
1579788029.747,236509
1579788039.747,236509
1579788049.751,236509
1579788059.747,236510
1579788069.747,236512
1579788079.747,236513
1579788089.747,236514
1579788099.747,236516
1579788109.747,236516
1579788119.747,236516
1579788129.747,236518
1579788139.747,236519
1579788149.747,236520
1579788159.747,236520
1579788169.747,236520
1579788179.747,236521
1579788189.747,236522
1579788199.747,236522
1579788209.747,236522
1579788219.748,236522
1579788229.747,236523
1579788239.747,236523
1579788249.747,236523
1579788259.747,236524
1579788269.747,236524
1579788279.747,236526
1579788289.747,236526
1579788299.747,236526
1579788309.747,236526
1579788319.747,236527
1579788329.747,236528
1579788339.747,236528
1579788349.749,236528
1579788359.747,236529
1579788369.747,236530
1579788379.748,236530
1579788389.748,236530
1579788399.747,236530
1579788409.747,236532
1579788419.747,236534
1579788429.748,236534
1579788439.747,236535
1579788449.747,236536
1579788459.747,236538
1579788469.747,236540
