epoch,value
1579940004.453,0
1579940014.453,0
1579940024.453,0
1579940034.453,1
1579940044.453,10
1579940054.453,16
1579940064.453,19
1579940074.453,22
1579940084.453,27
1579940094.453,34
1579940104.453,38
1579940114.453,39
1579940124.453,46
1579940134.453,51
1579940144.453,54
1579940154.453,55
1579940164.453,55
1579940174.453,56
1579940184.453,58
1579940194.453,58
1579940204.453,59
1579940214.453,60
1579940224.453,60
1579940234.453,60
1579940244.453,60
1579940254.453,60
1579940264.453,60
1579940274.453,60
1579940284.453,60
1579940294.453,60
1579940304.453,60
1579940314.453,60
1579940324.453,60
1579940334.453,60
1579940344.453,60
1579940354.453,60
1579940364.453,60
1579940374.453,60
1579940384.453,60
1579940394.453,60
1579940404.453,60
1579940414.453,60
1579940424.453,60
1579940434.453,60
1579940444.453,60
1579940454.453,61
1579940464.453,61
1579940474.453,61
1579940484.453,61
1579940494.453,61
1579940504.454,61
1579940514.453,61
1579940524.453,61
1579940534.453,61
1579940544.453,61
1579940554.453,61
1579940564.453,61
1579940574.453,61
1579940584.453,61
1579940594.453,61
1579940604.453,61
1579940614.453,61
1579940624.453,61
1579940634.453,61
1579940644.453,61
1579940654.453,61
1579940664.453,61
1579940674.453,61
1579940684.453,61
1579940694.453,61
1579940704.453,61
1579940714.453,61
1579940724.453,61
1579940734.453,61
1579940744.453,61
1579940754.453,61
1579940764.453,61
1579940774.453,61
1579940784.453,61
1579940794.453,61
1579940804.453,61
1579940814.453,61
1579940824.453,61
1579940834.453,61
1579940844.453,61
1579940854.453,61
1579940864.453,61
1579940874.453,61
1579940884.453,61
1579940894.453,61
1579940904.453,62
1579940914.453,62
1579940924.453,62
1579940934.453,62
1579940944.453,62
1579940954.453,62
1579940964.453,62
1579940974.453,62
1579940984.453,62
1579940994.453,62
1579941004.453,62
1579941014.453,62
1579941024.453,62
1579941034.453,62
1579941044.453,62
1579941054.453,62
1579941064.453,62
1579941074.453,62
1579941084.453,62
1579941094.453,62
1579941104.453,62
1579941114.453,62
1579941124.453,62
1579941134.453,62
1579941144.453,62
1579941154.453,62
1579941164.453,62
1579941174.453,62
1579941184.453,62
1579941194.453,62
1579941204.453,62
1579941214.453,62
1579941224.453,63
1579941234.453,63
1579941244.453,63
1579941254.453,63
1579941264.453,63
1579941274.453,63
1579941284.453,63
1579941294.453,63
1579941304.453,63
1579941314.453,63
1579941324.453,63
1579941334.453,63
1579941344.453,63
1579941354.453,63
1579941364.453,63
1579941374.453,63
1579941384.453,63
1579941394.453,63
1579941404.453,63
1579941414.453,63
1579941424.453,63
1579941434.453,63
1579941444.453,63
1579941454.453,63
1579941464.453,63
1579941474.453,63
1579941484.453,63
1579941494.453,63
1579941504.453,63
1579941514.453,63
1579941524.453,63
1579941534.453,63
1579941544.453,63
1579941554.453,63
1579941564.453,63
1579941574.453,63
1579941584.453,63
1579941594.453,63
1579941604.453,63
1579941614.453,63
1579941624.453,63
1579941634.453,63
1579941644.453,63
1579941654.453,63
1579941664.453,63
1579941674.453,63
1579941684.453,63
1579941694.453,63
1579941704.453,63
1579941714.453,64
1579941724.453,64
1579941734.453,64
1579941744.453,64
1579941754.453,64
1579941764.453,64
1579941774.453,64
1579941784.453,64
1579941794.453,64
1579941804.453,64
1579941814.453,64
1579941824.453,64
1579941834.453,64
1579941844.453,64
1579941854.453,64
1579941864.453,64
1579941874.453,64
1579941884.455,64
1579941894.453,64
1579941904.453,64
1579941914.453,64
1579941924.453,64
1579941934.453,64
1579941944.453,64
1579941954.453,64
1579941964.453,64
1579941974.453,64
1579941984.453,64
1579941994.453,64
1579942004.453,64
1579942014.453,64
1579942024.453,64
1579942034.453,64
1579942044.453,64
1579942054.453,64
1579942064.453,64
1579942074.453,64
1579942084.453,65
1579942094.453,65
1579942104.453,65
1579942114.453,65
1579942124.453,65
1579942134.453,65
1579942144.453,65
1579942154.453,65
1579942164.453,65
1579942174.453,65
1579942184.453,65
1579942194.453,65
1579942204.453,65
1579942214.453,65
1579942224.453,65
1579942234.453,65
1579942244.453,65
1579942254.453,65
1579942264.453,65
1579942274.453,65
1579942284.453,65
1579942294.453,65
1579942304.453,65
1579942314.453,65
1579942324.453,65
1579942334.453,65
1579942344.453,65
1579942354.453,65
1579942364.453,65
1579942374.453,65
1579942384.453,65
1579942394.453,65
1579942404.453,65
1579942414.453,65
1579942424.453,65
1579942434.453,65
1579942444.453,65
1579942454.453,66
1579942464.453,66
1579942474.453,66
1579942484.453,66
1579942494.453,66
1579942504.453,66
1579942514.453,66
1579942524.453,66
1579942534.453,66
1579942544.453,66
1579942554.453,66
1579942564.453,66
1579942574.453,66
1579942584.453,66
1579942594.453,66
1579942604.453,66
1579942614.453,66
