epoch,value
1580511605.645,413384
1580511615.645,413384
1580511625.645,413384
1580511635.646,413384
1580511645.644,413384
1580511655.645,413384
1580511665.644,413384
1580511675.644,413384
1580511685.644,413385
1580511695.646,413385
1580511705.647,413386
1580511715.644,413386
1580511725.644,413386
1580511735.644,413386
1580511745.648,413386
1580511755.645,413386
1580511765.644,413388
1580511775.644,413389
1580511785.644,413390
1580511795.647,413392
1580511805.644,413392
1580511815.647,413392
1580511825.644,413394
1580511835.644,413394
1580511845.644,413395
1580511855.646,413395
1580511865.645,413396
1580511875.644,413396
1580511885.644,413396
1580511895.644,413397
1580511905.645,413398
1580511915.644,413398
1580511925.647,413399
1580511935.644,413399
1580511945.644,413400
1580511955.644,413400
1580511965.644,413400
1580511975.644,413400
1580511985.644,413400
1580511995.644,413400
1580512005.644,413400
1580512015.644,413401
1580512025.644,413402
1580512035.644,413402
1580512045.644,413403
1580512055.644,413403
1580512065.646,413403
1580512075.645,413404
1580512085.644,413404
1580512095.645,413404
1580512105.644,413405
1580512115.645,413405
1580512125.645,413406
1580512135.644,413406
1580512145.647,413407
1580512155.644,413407
1580512165.644,413409
1580512175.645,413409
1580512185.646,413409
1580512195.645,413409
1580512205.646,413409
1580512215.646,413409
1580512225.644,413409
1580512235.646,413410
1580512245.644,413411
1580512255.647,413411
1580512265.645,413412
1580512275.644,413414
1580512285.645,413414
1580512295.644,413414
1580512305.644,413414
1580512315.644,413414
1580512325.644,413416
1580512335.644,413418
1580512345.645,413418
1580512355.644,413418
1580512365.645,413418
1580512375.644,413418
1580512385.645,413418
1580512395.644,413418
1580512405.644,413419
1580512415.644,413419
1580512425.645,413420
1580512435.645,413420
1580512445.644,413421
1580512455.647,413421
1580512465.644,413421
1580512475.645,413421
1580512485.647,413422
1580512495.645,413424
1580512505.644,413424
1580512515.645,413424
1580512525.645,413424
1580512535.645,413424
1580512545.644,413426
1580512555.646,413426
1580512565.644,413427
1580512575.644,413427
1580512585.644,413428
1580512595.647,413428
1580512605.644,413429
1580512615.645,413430
1580512625.644,413431
1580512635.644,413431
1580512645.645,413432
1580512655.644,413432
1580512665.644,413432
1580512675.644,413434
1580512685.644,413434
1580512695.644,413435
1580512705.644,413435
1580512715.645,413435
1580512725.644,413435
1580512735.644,413437
1580512745.646,413437
1580512755.646,413437
1580512765.644,413438
1580512775.644,413438
1580512785.645,413438
1580512795.645,413440
1580512805.646,413440
1580512815.645,413441
1580512825.645,413441
1580512835.644,413442
1580512845.644,413448
1580512855.644,413448
1580512865.645,413448
1580512875.646,413449
1580512885.645,413450
1580512895.644,413450
1580512905.644,413451
1580512915.645,413452
1580512925.645,413452
1580512935.644,413452
1580512945.644,413452
1580512955.645,413452
1580512965.644,413453
1580512975.644,413453
1580512985.646,413453
1580512995.645,413453
1580513005.644,413453
1580513015.644,413454
1580513025.644,413454
1580513035.645,413454
1580513045.646,413454
1580513055.644,413455
1580513065.644,413455
1580513075.644,413455
1580513085.645,413455
1580513095.644,413456
1580513105.644,413456
1580513115.645,413456
1580513125.644,413458
1580513135.644,413458
1580513145.645,413458
1580513155.644,413458
1580513165.645,413458
1580513175.644,413458
1580513185.644,413458
1580513195.645,413458
1580513205.644,413459
1580513215.644,413459
1580513225.644,413461
1580513235.644,413461
1580513245.644,413461
1580513255.645,413463
1580513265.644,413463
1580513275.644,413463
1580513285.645,413463
1580513295.646,413463
1580513305.645,413463
1580513315.644,413463
1580513325.646,413463
1580513335.644,413464
1580513345.648,413464
1580513355.645,413464
1580513365.645,413465
1580513375.644,413465
1580513385.644,413466
1580513395.644,413466
1580513405.645,413466
1580513415.644,413467
1580513425.645,413467
1580513435.644,413467
1580513445.644,413467
1580513455.644,413467
1580513465.644,413467
1580513475.647,413467
1580513485.645,413468
1580513495.644,413468
1580513505.644,413468
1580513515.644,413468
1580513525.644,413469
1580513535.646,413469
1580513545.646,413470
1580513555.644,413470
1580513565.644,413470
1580513575.644,413471
1580513585.644,413472
1580513595.644,413472
1580513605.644,413474
1580513615.645,413475
1580513625.647,413476
1580513635.644,413476
1580513645.644,413477
1580513655.645,413478
1580513665.644,413480
1580513675.644,413480
1580513685.644,413481
1580513695.645,413482
1580513705.644,413482
1580513715.646,413482
1580513725.645,413482
1580513735.644,413482
1580513745.645,413482
1580513755.644,413482
1580513765.644,413482
1580513775.644,413482
1580513785.645,413482
1580513795.645,413483
1580513805.644,413483
1580513815.645,413485
1580513825.644,413486
1580513835.644,413486
1580513845.644,413486
1580513855.644,413486
1580513865.645,413486
1580513875.644,413487
1580513885.644,413489
1580513895.644,413489
1580513905.648,413489
1580513915.644,413490
1580513925.644,413490
1580513935.644,413490
1580513945.646,413490
1580513955.644,413492
1580513965.645,413492
1580513975.644,413493
1580513985.644,413493
1580513995.645,413494
1580514005.644,413495
1580514015.646,413495
1580514025.644,413495
1580514035.645,413495
1580514045.644,413495
1580514055.644,413495
1580514065.645,413495
1580514075.645,413496
1580514085.645,413496
1580514095.645,413497
1580514105.644,413498
1580514115.644,413498
1580514125.646,413499
1580514135.644,413499
1580514145.645,413499
1580514155.644,413499
1580514165.647,413500
1580514175.644,413500
1580514185.644,413500
1580514195.645,413500
1580514205.645,413501
1580514215.644,413502
1580514225.644,413502
1580514235.647,413504
1580514245.644,413504
1580514255.645,413504
1580514265.644,413505
1580514275.645,413505
1580514285.644,413506
1580514295.644,413508
1580514305.646,413510
1580514315.644,413510
1580514325.644,413510
1580514335.644,413510
1580514345.645,413511
1580514355.644,413511
1580514365.644,413512
1580514375.645,413512
1580514385.647,413512
1580514395.644,413512
1580514405.645,413514
1580514415.645,413514
1580514425.648,413515
1580514435.644,413516
1580514445.646,413516
1580514455.644,413517
1580514465.644,413517
1580514475.644,413517
1580514485.645,413517
1580514495.644,413517
1580514505.644,413517
1580514515.646,413520
1580514525.644,413520
1580514535.644,413520
1580514545.644,413520
1580514555.644,413520
1580514565.644,413522
1580514575.646,413522
1580514585.647,413523
1580514595.644,413523
1580514605.644,413524
1580514615.644,413524
1580514625.645,413526
1580514635.644,413527
1580514645.644,413528
1580514655.647,413528
1580514665.646,413528
1580514675.644,413528
1580514685.645,413529
1580514695.644,413530
1580514705.645,413530
1580514715.644,413530
1580514725.644,413531
1580514735.645,413532
1580514745.645,413533
1580514755.647,413534
1580514765.644,413534
1580514775.644,413535
1580514785.645,413535
1580514795.645,413536
1580514805.645,413538
1580514815.645,413538
1580514825.644,413538
1580514835.645,413538
1580514845.644,413538
1580514855.644,413539
1580514865.644,413540
1580514875.644,413540
1580514885.646,413542
1580514895.644,413543
1580514905.645,413544
1580514915.645,413544
1580514925.644,413544
1580514935.644,413544
1580514945.645,413545
1580514955.644,413546
1580514965.645,413546
1580514975.647,413546
1580514985.645,413546
1580514995.644,413546
1580515005.644,413548
1580515015.645,413549
1580515025.645,413549
1580515035.644,413551
1580515045.644,413551
1580515055.646,413551
1580515065.644,413552
1580515075.644,413553
1580515085.644,413554
1580515095.644,413556
1580515105.645,413556
1580515115.644,413557
1580515125.647,413558
1580515135.644,413558
1580515145.645,413558
1580515155.645,413558
1580515165.645,413558
1580515175.644,413558
1580515185.645,413560
1580515195.646,413561
1580515205.644,413562
1580515215.647,413563
1580515225.644,413563
1580515235.644,413563
1580515245.646,413564
1580515255.644,413564
1580515265.645,413565
1580515275.646,413565
1580515285.645,413567
1580515295.644,413568
1580515305.644,413568
1580515315.646,413570
1580515325.644,413571
1580515335.645,413571
1580515345.644,413572
1580515355.645,413572
1580515365.644,413572
1580515375.644,413574
1580515385.644,413574
1580515395.645,413574
1580515405.646,413575
1580515415.644,413576
1580515425.644,413576
1580515435.644,413576
1580515445.644,413576
1580515455.644,413576
1580515465.644,413576
1580515475.644,413577
1580515485.644,413577
1580515495.645,413577
1580515505.645,413578
1580515515.644,413578
1580515525.644,413578
1580515535.647,413579
1580515545.645,413579
1580515555.644,413579
1580515565.645,413579
1580515575.644,413579
1580515585.644,413580
1580515595.645,413581
1580515605.644,413583
1580515615.644,413583
1580515625.645,413584
1580515635.644,413584
1580515645.645,413584
1580515655.645,413584
1580515665.645,413585
1580515675.645,413587
1580515685.644,413587
1580515695.644,413588
1580515705.644,413588
1580515715.644,413588
1580515725.644,413590
1580515735.645,413590
1580515745.645,413590
1580515755.645,413592
1580515765.647,413594
1580515775.645,413594
1580515785.645,413594
1580515795.644,413596
1580515805.644,413597
1580515815.646,413597
1580515825.646,413598
1580515835.644,413599
1580515845.645,413600
1580515855.644,413602
1580515865.647,413602
1580515875.644,413604
1580515885.644,413605
1580515895.644,413607
1580515905.645,413607
1580515915.644,413607
1580515925.644,413609
1580515935.647,413610
1580515945.645,413611
1580515955.645,413612
1580515965.644,413612
1580515975.644,413613
1580515985.644,413613
1580515995.646,413613
1580516005.644,413614
1580516015.644,413617
1580516025.645,413617
1580516035.646,413617
1580516045.645,413617
1580516055.645,413617
1580516065.645,413618
1580516075.644,413619
1580516085.645,413620
1580516095.644,413621
1580516105.644,413622
1580516115.644,413622
1580516125.644,413622
1580516135.645,413623
1580516145.645,413623
1580516155.645,413623
1580516165.644,413623
1580516175.644,413623
1580516185.644,413623
1580516195.645,413623
1580516205.644,413624
1580516215.644,413625
1580516225.644,413626
1580516235.644,413628
1580516245.644,413628
1580516255.645,413628
1580516265.644,413628
1580516275.644,413628
1580516285.644,413628
1580516295.645,413628
1580516305.645,413628
1580516315.646,413628
1580516325.645,413628
1580516335.646,413628
1580516345.644,413630
1580516355.647,413630
1580516365.644,413632
1580516375.644,413634
1580516385.645,413634
1580516395.644,413634
1580516405.645,413634
1580516415.646,413634
1580516425.645,413635
1580516435.646,413636
1580516445.646,413636
1580516455.645,413636
1580516465.644,413637
1580516475.644,413637
1580516485.645,413637
1580516495.645,413638
1580516505.648,413638
1580516515.644,413638
1580516525.644,413638
1580516535.644,413638
1580516545.644,413639
1580516555.646,413639
1580516565.644,413639
1580516575.644,413639
1580516585.644,413639
1580516595.645,413639
1580516605.644,413640
1580516615.644,413640
1580516625.644,413641
1580516635.645,413642
1580516645.646,413643
1580516655.644,413644
1580516665.645,413644
1580516675.644,413646
1580516685.645,413646
1580516695.644,413647
1580516705.645,413647
1580516715.646,413649
1580516725.644,413650
1580516735.644,413650
1580516745.644,413650
1580516755.646,413651
1580516765.645,413652
1580516775.644,413652
1580516785.645,413653
1580516795.644,413654
1580516805.645,413655
1580516815.646,413655
1580516825.644,413655
1580516835.644,413655
1580516845.644,413655
1580516855.646,413657
1580516865.644,413659
1580516875.645,413660
1580516885.645,413662
1580516895.645,413663
1580516905.644,413663
1580516915.645,413664
1580516925.644,413664
1580516935.644,413664
1580516945.645,413665
1580516955.644,413666
1580516965.644,413668
1580516975.644,413669
1580516985.645,413669
1580516995.645,413671
1580517005.648,413672
1580517015.646,413673
1580517025.644,413673
1580517035.646,413673
1580517045.644,413673
1580517055.644,413674
1580517065.646,413674
1580517075.647,413674
1580517085.644,413676
1580517095.644,413677
1580517105.644,413677
1580517115.644,413677
1580517125.646,413677
1580517135.645,413677
1580517145.644,413677
1580517155.644,413678
1580517165.649,413679
1580517175.645,413681
1580517185.644,413681
1580517195.645,413682
1580517205.645,413682
1580517215.644,413683
1580517225.644,413685
1580517235.644,413686
1580517245.644,413686
1580517255.646,413688
1580517265.644,413688
1580517275.646,413690
1580517285.644,413691
1580517295.644,413692
1580517305.645,413692
1580517315.644,413692
1580517325.646,413692
1580517335.644,413692
1580517345.644,413694
1580517355.646,413694
1580517365.644,413696
1580517375.644,413696
1580517385.645,413696
1580517395.644,413698
1580517405.644,413699
1580517415.644,413700
1580517425.645,413701
1580517435.649,413701
1580517445.644,413702
1580517455.644,413703
1580517465.645,413704
1580517475.644,413704
1580517485.645,413704
1580517495.645,413704
1580517505.645,413705
1580517515.645,413706
1580517525.645,413706
1580517535.645,413707
1580517545.644,413707
1580517555.646,413710
1580517565.644,413710
1580517575.644,413711
