epoch,value
1580509415.671,413271
1580509425.648,413272
1580509435.644,413272
1580509445.644,413272
1580509455.644,413273
1580509465.644,413273
1580509475.645,413274
1580509485.645,413274
1580509495.644,413275
1580509505.644,413275
1580509515.645,413276
1580509525.644,413276
1580509535.644,413277
1580509545.644,413277
1580509555.644,413277
1580509565.644,413277
1580509575.644,413278
1580509585.644,413278
1580509595.646,413278
1580509605.645,413278
1580509615.644,413278
1580509625.644,413278
1580509635.644,413278
1580509645.647,413279
1580509655.644,413279
1580509665.645,413279
1580509675.645,413279
1580509685.647,413279
1580509695.644,413279
1580509705.645,413279
1580509715.645,413280
1580509725.646,413280
1580509735.644,413281
1580509745.646,413282
1580509755.644,413282
1580509765.645,413282
1580509775.644,413284
1580509785.645,413284
1580509795.644,413284
1580509805.645,413284
1580509815.644,413284
1580509825.645,413284
1580509835.644,413285
1580509845.645,413286
1580509855.645,413286
1580509865.644,413286
1580509875.645,413287
1580509885.644,413287
1580509895.646,413288
1580509905.646,413288
1580509915.646,413288
1580509925.646,413288
1580509935.644,413288
1580509945.644,413289
1580509955.644,413290
1580509965.646,413290
1580509975.646,413290
1580509985.646,413290
1580509995.645,413290
1580510005.648,413290
1580510015.644,413290
1580510025.647,413290
1580510035.644,413290
1580510045.645,413293
1580510055.645,413294
1580510065.644,413294
1580510075.644,413295
1580510085.645,413296
1580510095.644,413296
1580510105.644,413297
1580510115.644,413297
1580510125.644,413297
1580510135.644,413297
1580510145.645,413298
1580510155.646,413298
1580510165.645,413298
1580510175.644,413299
1580510185.644,413299
1580510195.644,413299
1580510205.645,413300
1580510215.644,413300
1580510225.645,413300
1580510235.644,413300
1580510245.646,413300
1580510255.644,413301
1580510265.644,413301
1580510275.644,413302
1580510285.646,413302
1580510295.644,413302
1580510305.647,413302
1580510315.646,413302
1580510325.644,413302
1580510335.645,413302
1580510345.649,413304
1580510355.645,413304
1580510365.644,413304
1580510375.644,413304
1580510385.644,413305
1580510395.644,413306
1580510405.645,413306
1580510415.644,413306
1580510425.644,413306
1580510435.645,413306
1580510445.644,413306
1580510455.644,413306
1580510465.647,413308
1580510475.644,413308
1580510485.645,413308
1580510495.644,413308
1580510505.644,413310
1580510515.644,413310
1580510525.644,413310
1580510535.644,413310
1580510545.645,413311
1580510555.644,413312
1580510565.644,413313
1580510575.644,413313
1580510585.645,413315
1580510595.644,413315
1580510605.644,413317
1580510615.644,413318
1580510625.644,413318
1580510635.645,413318
1580510645.644,413318
1580510655.644,413320
1580510665.644,413320
1580510675.645,413320
1580510685.645,413320
1580510695.646,413322
1580510705.644,413322
1580510715.644,413322
1580510725.645,413323
1580510735.644,413323
1580510745.645,413323
1580510755.646,413323
1580510765.644,413324
1580510775.645,413324
1580510785.644,413324
1580510795.645,413324
1580510805.644,413326
1580510815.648,413326
1580510825.644,413326
1580510835.644,413328
1580510845.644,413329
1580510855.645,413330
1580510865.645,413330
1580510875.644,413331
1580510885.644,413333
1580510895.644,413334
1580510905.644,413334
1580510915.644,413334
1580510925.645,413336
1580510935.644,413337
1580510945.644,413339
1580510955.645,413339
1580510965.645,413340
1580510975.649,413340
1580510985.644,413342
1580510995.644,413344
1580511005.645,413346
1580511015.645,413346
1580511025.646,413348
1580511035.644,413348
1580511045.644,413349
1580511055.644,413349
1580511065.644,413349
1580511075.645,413351
1580511085.645,413352
1580511095.644,413352
1580511105.644,413352
1580511115.644,413353
1580511125.645,413353
1580511135.645,413353
1580511145.644,413353
1580511155.644,413353
1580511165.645,413353
1580511175.644,413354
1580511185.644,413356
1580511195.644,413356
1580511205.645,413356
1580511215.644,413358
1580511225.644,413358
1580511235.644,413360
1580511245.644,413360
1580511255.644,413360
1580511265.646,413360
1580511275.644,413360
1580511285.644,413362
1580511295.644,413362
1580511305.644,413364
1580511315.644,413364
1580511325.644,413366
1580511335.645,413366
1580511345.644,413367
1580511355.644,413369
1580511365.645,413370
1580511375.646,413370
1580511385.645,413371
1580511395.646,413372
1580511405.645,413372
1580511415.646,413372
1580511425.644,413373
1580511435.645,413373
1580511445.644,413374
1580511455.644,413374
1580511465.644,413374
1580511475.644,413375
1580511485.644,413376
1580511495.644,413376
1580511505.645,413376
1580511515.648,413377
1580511525.644,413379
1580511535.644,413379
1580511545.645,413380
1580511555.645,413381
1580511565.646,413382
1580511575.645,413382
1580511585.645,413382
1580511595.644,413382
