epoch,value
1580569873.962,41894
1580569883.946,41894
1580569893.947,41895
1580569903.946,41895
1580569913.946,41896
1580569923.946,41896
1580569933.946,41896
1580569943.946,41896
1580569953.946,41896
1580569963.947,41896
1580569973.948,41896
1580569983.946,41896
1580569993.946,41896
1580570003.946,41896
1580570013.946,41897
1580570023.946,41897
1580570033.946,41897
1580570043.946,41898
1580570053.946,41898
1580570063.946,41898
1580570073.946,41898
1580570083.947,41898
1580570093.946,41898
1580570103.946,41898
1580570113.946,41898
1580570123.946,41898
1580570133.946,41898
1580570143.946,41898
1580570153.946,41898
1580570163.946,41898
1580570173.947,41898
1580570183.946,41898
1580570193.946,41898
1580570203.946,41899
1580570213.948,41899
1580570223.946,41900
1580570233.947,41900
1580570243.947,41900
1580570253.946,41901
1580570263.946,41901
1580570273.947,41901
1580570283.946,41901
1580570293.946,41901
1580570303.946,41902
1580570313.946,41902
1580570323.946,41902
1580570333.946,41902
1580570343.946,41902
1580570353.946,41902
1580570363.946,41902
1580570373.946,41902
1580570383.946,41902
1580570393.946,41902
1580570403.946,41902
1580570413.947,41902
1580570423.946,41902
1580570433.946,41902
1580570443.946,41902
1580570453.946,41902
1580570463.946,41902
1580570473.948,41902
1580570483.947,41902
1580570493.946,41903
1580570503.946,41903
1580570513.946,41903
1580570523.946,41903
1580570533.946,41903
1580570543.946,41903
1580570553.946,41904
1580570563.946,41904
1580570573.948,41904
1580570583.946,41904
1580570593.946,41904
1580570603.946,41904
1580570613.947,41904
1580570623.946,41904
1580570633.946,41904
1580570643.946,41904
1580570653.946,41904
1580570663.946,41904
1580570673.946,41904
1580570683.946,41904
1580570693.946,41904
1580570703.946,41904
1580570713.946,41904
1580570723.946,41904
1580570733.946,41904
1580570743.946,41904
1580570753.946,41904
1580570763.946,41904
1580570773.946,41905
1580570783.946,41905
1580570793.946,41905
1580570803.946,41905
1580570813.946,41905
1580570823.946,41905
1580570833.946,41905
1580570843.946,41905
1580570853.946,41906
1580570863.946,41906
1580570873.946,41906
1580570883.946,41906
1580570893.946,41906
1580570903.946,41906
1580570913.946,41906
1580570923.947,41907
1580570933.946,41907
1580570943.946,41907
1580570953.946,41907
1580570963.947,41907
1580570973.946,41907
1580570983.946,41907
1580570993.947,41907
1580571003.946,41908
1580571013.946,41909
1580571023.948,41910
1580571033.946,41910
1580571043.946,41910
1580571053.946,41910
1580571063.946,41911
1580571073.946,41911
1580571083.946,41911
1580571093.946,41911
1580571103.946,41912
1580571113.946,41912
1580571123.946,41912
1580571133.946,41912
1580571143.946,41912
1580571153.946,41912
1580571163.946,41912
1580571173.948,41912
1580571183.946,41912
1580571193.946,41912
1580571203.946,41912
1580571213.946,41912
1580571223.946,41912
1580571233.946,41912
1580571243.946,41912
1580571253.946,41912
1580571263.946,41912
1580571273.946,41912
1580571283.946,41912
1580571293.946,41912
1580571303.948,41912
1580571313.946,41912
1580571323.946,41912
1580571333.946,41912
1580571343.946,41912
1580571353.946,41912
1580571363.946,41912
1580571373.946,41912
1580571383.946,41912
1580571393.947,41912
1580571403.946,41912
1580571413.946,41912
1580571423.946,41912
1580571433.949,41912
1580571443.946,41912
1580571453.946,41912
1580571463.946,41912
1580571473.946,41912
1580571483.946,41913
1580571493.946,41913
1580571503.946,41913
1580571513.946,41913
1580571523.946,41913
1580571533.946,41913
1580571543.946,41913
1580571553.947,41913
1580571563.946,41913
1580571573.947,41913
1580571583.946,41913
1580571593.946,41914
1580571603.946,41914
1580571613.946,41914
1580571623.946,41915
1580571633.946,41915
1580571643.946,41915
1580571653.946,41915
1580571663.947,41915
1580571673.946,41915
1580571683.946,41915
1580571693.946,41915
1580571703.950,41915
1580571713.946,41915
1580571723.946,41915
1580571733.946,41916
1580571743.948,41916
1580571753.946,41916
1580571763.948,41917
1580571773.946,41917
1580571783.946,41918
1580571793.946,41918
1580571803.946,41918
1580571813.946,41918
1580571823.946,41919
1580571833.946,41919
1580571843.946,41919
1580571853.946,41919
1580571863.946,41919
1580571873.946,41919
1580571883.946,41919
1580571893.946,41919
1580571903.946,41919
1580571913.946,41919
1580571923.946,41919
1580571933.946,41919
1580571943.947,41920
1580571953.946,41920
1580571963.947,41920
1580571973.946,41921
1580571983.946,41921
1580571993.946,41921
1580572003.947,41921
1580572013.947,41921
1580572023.946,41922
1580572033.946,41922
1580572043.946,41922
1580572053.946,41922
1580572063.947,41922
1580572073.946,41923
1580572083.946,41923
1580572093.946,41923
1580572103.946,41923
1580572113.946,41923
1580572123.946,41923
1580572133.946,41923
1580572143.949,41923
1580572153.946,41924
1580572163.946,41925
1580572173.946,41926
1580572183.948,41926
1580572193.948,41926
1580572203.946,41926
1580572213.946,41926
1580572223.946,41926
1580572233.946,41926
1580572243.947,41926
1580572253.946,41926
1580572263.946,41926
1580572273.946,41926
1580572283.946,41926
1580572293.947,41926
1580572303.947,41926
1580572313.946,41927
1580572323.946,41927
1580572333.946,41927
1580572343.946,41927
1580572353.946,41927
1580572363.946,41929
1580572373.946,41929
1580572383.946,41930
1580572393.946,41930
1580572403.946,41930
1580572413.947,41930
1580572423.946,41930
1580572433.946,41930
1580572443.946,41930
1580572453.946,41930
1580572463.947,41930
1580572473.946,41930
1580572483.946,41930
1580572493.946,41930
1580572503.946,41931
1580572513.946,41931
1580572523.946,41931
1580572533.946,41931
1580572543.946,41931
1580572553.946,41931
1580572563.947,41931
1580572573.946,41931
1580572583.947,41931
1580572593.949,41931
1580572603.946,41931
1580572613.947,41931
1580572623.946,41931
1580572633.946,41931
1580572643.947,41931
1580572653.946,41931
1580572663.946,41931
1580572673.946,41931
1580572683.946,41931
1580572693.946,41932
1580572703.946,41932
1580572713.946,41932
1580572723.946,41932
1580572733.946,41932
1580572743.946,41932
1580572753.946,41932
1580572763.946,41932
1580572773.946,41934
1580572783.947,41935
1580572793.946,41935
1580572803.946,41935
1580572813.946,41935
1580572823.948,41935
1580572833.946,41935
1580572843.947,41935
1580572853.946,41935
1580572863.946,41935
1580572873.948,41935
1580572883.946,41935
1580572893.946,41937
1580572903.947,41937
1580572913.946,41937
1580572923.946,41937
1580572933.946,41937
1580572943.946,41937
1580572953.946,41938
1580572963.946,41938
1580572973.947,41938
1580572983.946,41938
1580572993.946,41938
1580573003.947,41938
1580573013.947,41938
1580573023.946,41938
1580573033.947,41938
1580573043.946,41938
1580573053.946,41938
1580573063.946,41938
1580573073.947,41938
1580573083.946,41938
1580573093.946,41938
1580573103.946,41938
1580573113.946,41938
1580573123.946,41938
1580573133.946,41938
1580573143.946,41938
1580573153.948,41938
1580573163.946,41938
1580573173.946,41938
1580573183.946,41938
1580573193.946,41938
1580573203.946,41938
1580573213.946,41938
1580573223.946,41939
1580573233.946,41940
1580573243.946,41940
1580573253.946,41940
1580573263.946,41940
1580573273.953,41940
1580573283.946,41940
1580573293.946,41940
1580573303.946,41940
1580573313.947,41940
1580573323.946,41940
1580573333.947,41940
1580573343.946,41940
1580573353.946,41940
1580573363.946,41941
1580573373.946,41941
1580573383.946,41941
1580573393.947,41941
1580573403.946,41941
1580573413.946,41944
1580573423.946,41944
1580573433.946,41944
1580573443.946,41944
1580573453.946,41944
1580573463.946,41944
1580573473.946,41945
1580573483.947,41946
1580573493.946,41946
1580573503.946,41946
1580573513.946,41946
1580573523.946,41946
1580573533.946,41946
1580573543.946,41947
1580573553.947,41947
1580573563.948,41948
1580573573.946,41948
1580573583.947,41948
1580573593.946,41948
1580573603.946,41948
1580573613.946,41948
1580573623.946,41948
1580573633.946,41948
1580573643.946,41948
1580573653.946,41948
1580573663.948,41948
1580573673.946,41949
1580573683.946,41949
1580573693.949,41949
1580573703.949,41949
1580573713.946,41949
1580573723.946,41949
1580573733.952,41949
1580573743.949,41949
1580573753.946,41949
1580573763.946,41949
1580573773.946,41950
1580573783.946,41950
1580573793.946,41950
1580573803.947,41950
1580573813.946,41950
1580573823.946,41950
1580573833.946,41951
1580573843.947,41951
1580573853.946,41951
1580573863.946,41951
1580573873.946,41951
1580573883.946,41951
1580573893.946,41951
1580573903.948,41951
1580573913.946,41951
1580573923.946,41951
1580573933.946,41951
1580573943.946,41951
1580573953.946,41951
1580573963.946,41952
1580573973.947,41952
1580573983.946,41952
1580573993.946,41952
1580574003.946,41952
1580574013.948,41953
1580574023.946,41953
1580574033.946,41953
1580574043.946,41954
1580574053.947,41954
1580574063.946,41954
1580574073.946,41954
1580574083.947,41954
1580574093.947,41954
1580574103.948,41954
1580574113.946,41954
1580574123.946,41954
1580574133.946,41954
1580574143.946,41954
1580574153.947,41954
1580574163.946,41954
1580574173.946,41954
1580574183.946,41954
1580574193.947,41954
1580574203.947,41954
1580574213.946,41954
1580574223.947,41954
1580574233.946,41954
1580574243.946,41954
1580574253.946,41954
1580574263.946,41954
1580574273.946,41954
1580574283.950,41954
1580574293.947,41954
1580574303.946,41954
1580574313.946,41954
1580574323.946,41954
1580574333.946,41954
1580574343.946,41954
1580574353.946,41954
1580574363.946,41954
1580574373.946,41954
1580574383.946,41954
1580574393.947,41954
1580574403.946,41955
1580574413.947,41955
1580574423.946,41955
1580574433.946,41955
1580574443.946,41955
1580574453.946,41955
1580574463.946,41955
1580574473.947,41955
1580574483.946,41955
1580574493.948,41955
1580574503.946,41955
1580574513.946,41955
1580574523.946,41955
1580574533.946,41956
1580574543.946,41956
1580574553.946,41956
1580574563.946,41956
1580574573.946,41956
1580574583.946,41956
1580574593.946,41956
1580574603.946,41957
1580574613.946,41957
1580574623.946,41957
1580574633.946,41957
1580574643.946,41957
1580574653.947,41957
1580574663.946,41957
1580574673.947,41958
1580574683.946,41959
1580574693.946,41959
1580574703.946,41959
1580574713.946,41959
1580574723.946,41961
1580574733.946,41961
1580574743.946,41962
1580574753.946,41962
1580574763.946,41962
1580574773.946,41962
1580574783.946,41962
1580574793.946,41962
1580574803.946,41962
1580574813.946,41962
1580574823.947,41962
1580574833.946,41962
1580574843.946,41962
1580574853.946,41962
1580574863.946,41962
1580574873.946,41962
1580574883.946,41962
1580574893.946,41963
1580574903.946,41963
1580574913.947,41963
1580574923.946,41963
1580574933.948,41963
1580574943.946,41963
1580574953.946,41964
1580574963.947,41964
1580574973.946,41964
1580574983.946,41964
1580574993.946,41964
1580575003.946,41964
1580575013.946,41965
1580575023.946,41965
1580575033.947,41965
1580575043.949,41965
1580575053.946,41965
1580575063.946,41965
1580575073.946,41966
1580575083.946,41966
1580575093.946,41966
1580575103.947,41966
1580575113.948,41966
1580575123.946,41966
1580575133.946,41966
1580575143.946,41966
1580575153.946,41966
1580575163.946,41966
1580575173.948,41966
1580575183.946,41966
1580575193.947,41966
1580575203.946,41966
1580575213.946,41966
1580575223.947,41966
1580575233.946,41966
1580575243.946,41966
1580575253.946,41966
1580575263.946,41966
1580575273.946,41966
1580575283.946,41966
1580575293.946,41966
1580575303.947,41966
1580575313.946,41966
1580575323.946,41966
1580575333.947,41966
1580575343.946,41966
1580575353.946,41966
1580575363.946,41966
1580575373.946,41966
1580575383.947,41966
1580575393.946,41966
1580575403.946,41967
1580575413.946,41967
1580575423.946,41967
1580575433.946,41967
1580575443.946,41967
1580575453.946,41967
1580575463.946,41967
1580575473.946,41968
1580575483.946,41968
1580575493.946,41968
1580575503.946,41968
1580575513.946,41968
1580575523.946,41968
1580575533.946,41968
1580575543.946,41968
1580575553.946,41968
1580575563.946,41968
1580575573.946,41968
1580575583.946,41969
1580575593.946,41969
1580575603.946,41969
1580575613.946,41969
1580575623.946,41969
1580575633.947,41969
1580575643.946,41969
1580575653.947,41969
1580575663.946,41969
1580575673.946,41969
1580575683.946,41969
1580575693.946,41969
1580575703.946,41969
1580575713.946,41969
1580575723.946,41969
1580575733.946,41969
1580575743.946,41969
1580575753.946,41969
1580575763.947,41969
1580575773.946,41969
1580575783.946,41969
1580575793.946,41969
1580575803.946,41969
1580575813.950,41969
1580575823.946,41969
1580575833.946,41969
1580575843.946,41969
1580575853.946,41969
1580575863.946,41969
1580575873.946,41969
1580575883.946,41969
1580575893.950,41969
1580575903.947,41969
1580575913.947,41969
1580575923.946,41969
1580575933.948,41969
1580575943.947,41969
1580575953.946,41969
1580575963.947,41969
1580575973.947,41969
1580575983.947,41969
1580575993.946,41969
1580576003.946,41969
1580576013.946,41972
1580576023.946,41972
1580576033.946,41972
1580576043.946,41972
1580576053.946,41972
1580576063.946,41972
1580576073.946,41973
1580576083.948,41973
1580576093.946,41973
1580576103.947,41973
1580576113.946,41973
1580576123.946,41973
1580576133.946,41973
1580576143.947,41973
1580576153.946,41973
1580576163.946,41973
1580576173.946,41973
1580576183.946,41973
1580576193.946,41973
1580576203.946,41973
1580576213.946,41973
1580576223.946,41973
1580576233.946,41973
1580576243.946,41973
1580576253.947,41973
1580576263.947,41973
1580576273.946,41973
1580576283.946,41973
1580576293.947,41973
1580576303.946,41973
1580576313.946,41973
1580576323.947,41973
1580576333.947,41973
1580576343.947,41973
1580576353.947,41973
1580576363.946,41973
1580576373.946,41974
1580576383.946,41974
1580576393.946,41974
1580576403.946,41974
1580576413.946,41974
1580576423.947,41974
1580576433.946,41974
1580576443.946,41974
1580576453.946,41974
1580576463.946,41974
1580576473.946,41974
1580576483.946,41975
1580576493.946,41976
1580576503.946,41976
1580576513.946,41976
1580576523.947,41976
1580576533.946,41976
1580576543.946,41976
1580576553.946,41976
1580576563.946,41976
1580576573.947,41976
1580576583.947,41976
1580576593.946,41976
1580576603.946,41976
1580576613.947,41976
1580576623.949,41976
1580576633.946,41976
1580576643.946,41976
1580576653.948,41976
1580576663.946,41976
1580576673.946,41976
1580576683.946,41976
1580576693.946,41976
1580576703.946,41976
1580576713.946,41976
1580576723.946,41976
1580576733.946,41976
1580576743.947,41976
1580576753.947,41976
1580576763.946,41976
1580576773.946,41976
1580576783.947,41976
1580576793.947,41977
1580576803.947,41977
1580576813.946,41977
1580576823.948,41977
1580576833.947,41977
1580576843.946,41978
1580576853.949,41978
1580576863.946,41978
1580576873.946,41978
1580576883.947,41978
1580576893.949,41978
1580576903.946,41979
1580576913.946,41979
1580576923.947,41979
1580576933.946,41979
1580576943.946,41979
1580576953.946,41979
1580576963.947,41979
1580576973.948,41979
1580576983.946,41980
1580576993.946,41980
1580577003.946,41980
1580577013.947,41980
1580577023.946,41980
1580577033.947,41980
1580577043.947,41980
1580577053.948,41980
1580577063.948,41980
1580577073.946,41980
1580577083.946,41980
1580577093.948,41980
1580577103.947,41980
1580577113.946,41980
1580577123.946,41980
1580577133.946,41980
1580577143.946,41980
1580577153.946,41980
1580577163.946,41980
1580577173.946,41980
1580577183.946,41980
1580577193.946,41980
1580577203.946,41980
1580577213.946,41980
1580577223.947,41980
1580577233.947,41980
1580577243.946,41980
1580577253.946,41980
1580577263.946,41980
1580577273.946,41982
1580577283.949,41982
1580577293.946,41982
1580577303.946,41982
1580577313.946,41982
1580577323.946,41982
1580577333.946,41982
1580577343.946,41982
1580577353.946,41982
1580577363.946,41982
1580577373.946,41982
1580577383.946,41982
1580577393.947,41982
1580577403.946,41982
1580577413.947,41982
1580577423.946,41982
1580577433.946,41982
1580577443.946,41982
1580577453.946,41982
1580577463.947,41982
1580577473.946,41982
1580577483.946,41982
1580577493.949,41982
1580577503.946,41982
1580577513.946,41983
1580577523.946,41983
1580577533.946,41983
1580577543.946,41984
1580577553.946,41984
1580577563.946,41984
1580577573.946,41984
1580577583.946,41984
1580577593.946,41984
1580577603.947,41984
1580577613.946,41985
1580577623.946,41985
1580577633.946,41985
1580577643.946,41986
1580577653.946,41986
1580577663.946,41986
1580577673.946,41986
1580577683.946,41986
1580577693.946,41986
1580577703.946,41986
1580577713.946,41986
1580577723.946,41986
1580577733.946,41986
1580577743.948,41986
1580577753.946,41986
1580577763.946,41986
1580577773.946,41986
1580577783.948,41986
1580577793.946,41986
1580577803.946,41987
1580577813.946,41987
1580577823.946,41987
1580577833.946,41987
1580577843.946,41988
1580577853.946,41988
1580577863.947,41988
1580577873.948,41988
1580577883.946,41988
1580577893.946,41988
1580577903.946,41989
1580577913.947,41989
1580577923.947,41989
1580577933.947,41989
1580577943.946,41989
1580577953.946,41989
1580577963.946,41989
1580577973.946,41989
1580577983.946,41989
1580577993.946,41989
1580578003.946,41989
1580578013.946,41989
1580578023.946,41989
1580578033.946,41989
