epoch,value
1580818453.993,444651
1580818463.973,444651
1580818473.972,444651
1580818483.973,444651
1580818493.972,444651
1580818503.974,444651
1580818513.973,444669
1580818523.973,444719
1580818533.974,444780
1580818543.973,444847
1580818553.972,444898
1580818563.973,444966
1580818573.972,445031
1580818583.974,445099
1580818593.972,445161
1580818603.973,445232
1580818613.972,445315
1580818623.975,445374
1580818633.973,445445
1580818643.973,445507
1580818653.973,445574
1580818663.973,445653
1580818673.972,445720
1580818683.972,445784
1580818693.973,445846
1580818703.975,445910
1580818713.973,445961
1580818723.972,446033
1580818733.973,446102
1580818743.973,446153
1580818753.972,446211
1580818763.972,446285
1580818773.972,446350
1580818783.972,446419
1580818793.973,446486
1580818803.974,446548
1580818813.972,446618
1580818823.973,446690
1580818833.972,446759
1580818843.973,446826
1580818853.972,446894
1580818863.975,446969
1580818873.973,447020
1580818883.972,447086
1580818893.973,447169
1580818903.973,447229
1580818913.974,447235
1580818923.972,447235
1580818933.972,447236
1580818943.972,447236
1580818953.972,447237
1580818963.974,447238
1580818973.972,447240
1580818983.973,447241
1580818993.972,447241
1580819003.972,447241
1580819013.975,447242
1580819023.972,447242
1580819033.972,447243
1580819043.973,447244
1580819053.972,447244
1580819063.972,447244
1580819073.972,447244
1580819083.972,447244
1580819093.973,447245
1580819103.972,447246
1580819113.973,447246
1580819123.973,447248
1580819133.972,447248
1580819143.972,447248
1580819153.973,447250
1580819163.972,447250
1580819173.973,447250
1580819183.972,447251
1580819193.972,447251
1580819203.973,447251
1580819213.973,447252
1580819223.972,447252
1580819233.973,447252
1580819243.974,447254
1580819253.973,447255
1580819263.973,447255
1580819273.973,447255
1580819283.974,447256
1580819293.974,447257
1580819303.972,447258
1580819313.972,447259
1580819323.972,447260
1580819333.973,447260
1580819343.972,447261
1580819353.972,447261
1580819363.972,447262
1580819373.975,447264
1580819383.972,447264
1580819393.972,447265
1580819403.972,447265
1580819413.974,447265
1580819423.972,447267
1580819433.972,447267
1580819443.974,447267
1580819453.972,447267
1580819463.972,447268
1580819473.972,447270
1580819483.973,447271
1580819493.972,447272
1580819503.974,447274
1580819513.973,447274
1580819523.974,447276
1580819533.972,447276
1580819543.972,447276
1580819553.972,447276
1580819563.972,447276
1580819573.972,447277
1580819583.973,447277
1580819593.976,447278
1580819603.973,447279
1580819613.972,447280
1580819623.972,447280
1580819633.972,447281
1580819643.974,447283
1580819653.974,447284
1580819663.973,447284
1580819673.972,447285
1580819683.973,447285
1580819693.972,447286
1580819703.973,447286
1580819713.972,447287
1580819723.973,447287
1580819733.972,447288
1580819743.972,447288
1580819753.973,447289
1580819763.974,447289
1580819773.972,447289
1580819783.972,447289
1580819793.972,447290
1580819803.972,447290
1580819813.972,447290
1580819823.972,447290
1580819833.973,447290
1580819843.972,447291
1580819853.972,447292
1580819863.975,447293
1580819873.972,447295
1580819883.972,447295
1580819893.972,447296
1580819903.972,447296
1580819913.972,447297
1580819923.972,447298
1580819933.973,447299
1580819943.972,447299
1580819953.972,447299
1580819963.974,447299
1580819973.972,447299
1580819983.972,447299
1580819993.975,447300
1580820003.972,447300
1580820013.972,447300
1580820023.972,447301
1580820033.974,447302
1580820043.973,447303
1580820053.972,447304
1580820063.972,447304
1580820073.972,447305
1580820083.973,447305
