epoch,value
1580509415.671,12801
1580509425.648,12801
1580509435.644,12801
1580509445.645,12801
1580509455.645,12801
1580509465.644,12801
1580509475.645,12801
1580509485.645,12801
1580509495.644,12801
1580509505.644,12801
1580509515.645,12801
1580509525.644,12801
1580509535.644,12801
1580509545.644,12801
1580509555.644,12801
1580509565.644,12801
1580509575.644,12801
1580509585.644,12801
1580509595.646,12801
1580509605.645,12801
1580509615.644,12801
1580509625.644,12801
1580509635.644,12801
1580509645.647,12801
1580509655.644,12801
1580509665.645,12801
1580509675.645,12801
1580509685.647,12801
1580509695.644,12801
1580509705.645,12801
1580509715.645,12801
1580509725.646,12801
1580509735.644,12801
1580509745.646,12801
1580509755.644,12801
1580509765.645,12801
1580509775.644,12801
1580509785.645,12801
1580509795.644,12801
1580509805.645,12801
1580509815.644,12802
1580509825.645,12802
1580509835.644,12802
1580509845.645,12802
1580509855.645,12802
1580509865.644,12802
1580509875.645,12802
1580509885.644,12802
1580509895.646,12802
1580509905.646,12802
1580509915.646,12802
1580509925.646,12802
1580509935.644,12802
1580509945.644,12802
1580509955.644,12802
1580509965.646,12802
1580509975.646,12802
1580509985.646,12802
1580509995.645,12802
1580510005.648,12802
1580510015.644,12802
1580510025.647,12802
1580510035.644,12802
1580510045.645,12802
1580510055.645,12802
1580510065.644,12802
1580510075.644,12802
1580510085.645,12802
1580510095.644,12802
1580510105.644,12802
1580510115.644,12802
1580510125.644,12802
1580510135.644,12802
1580510145.645,12802
1580510155.646,12802
1580510165.645,12802
1580510175.644,12802
1580510185.644,12802
1580510195.644,12802
1580510205.645,12802
1580510215.644,12802
1580510225.645,12802
1580510235.644,12802
1580510245.646,12802
1580510255.644,12802
1580510265.644,12802
1580510275.644,12802
1580510285.646,12802
1580510295.644,12802
1580510305.647,12802
1580510315.646,12802
1580510325.644,12802
1580510335.645,12803
1580510345.649,12803
1580510355.645,12803
1580510365.644,12804
1580510375.644,12804
1580510385.644,12804
1580510395.644,12804
1580510405.645,12804
1580510415.644,12804
1580510425.644,12804
1580510435.645,12804
1580510445.644,12804
1580510455.644,12804
1580510465.647,12804
1580510475.644,12804
1580510485.645,12804
1580510495.644,12804
1580510505.644,12804
1580510515.644,12804
1580510525.644,12804
1580510535.644,12804
1580510545.645,12804
1580510555.644,12804
1580510565.644,12804
1580510575.644,12804
1580510585.645,12804
1580510595.644,12804
1580510605.644,12804
1580510615.644,12804
1580510625.644,12804
1580510635.645,12804
1580510645.644,12804
1580510655.644,12804
1580510665.644,12804
1580510675.645,12804
1580510685.645,12804
1580510695.646,12804
1580510705.644,12804
1580510715.644,12804
1580510725.645,12804
1580510735.644,12804
1580510745.645,12804
1580510755.647,12804
1580510765.644,12804
1580510775.646,12804
1580510785.644,12804
1580510795.645,12804
1580510805.644,12804
1580510815.648,12804
1580510825.644,12804
1580510835.644,12804
1580510845.644,12804
1580510855.645,12804
1580510865.645,12804
1580510875.644,12804
1580510885.644,12804
1580510895.644,12804
1580510905.644,12804
1580510915.644,12804
1580510925.645,12804
1580510935.645,12804
1580510945.644,12804
1580510955.645,12804
1580510965.645,12804
1580510975.649,12804
1580510985.644,12804
1580510995.644,12804
1580511005.645,12804
1580511015.645,12804
1580511025.646,12804
1580511035.644,12804
1580511045.644,12804
1580511055.644,12804
1580511065.644,12804
1580511075.645,12804
1580511085.645,12804
1580511095.644,12804
1580511105.644,12804
1580511115.645,12804
1580511125.645,12804
1580511135.645,12804
1580511145.644,12804
1580511155.644,12804
1580511165.645,12804
1580511175.644,12804
1580511185.644,12805
1580511195.644,12805
1580511205.645,12805
1580511215.644,12805
1580511225.644,12805
1580511235.644,12805
1580511245.644,12805
1580511255.644,12805
1580511265.646,12805
1580511275.644,12805
1580511285.644,12805
1580511295.644,12805
1580511305.644,12805
1580511315.644,12805
1580511325.644,12805
1580511335.645,12805
1580511345.644,12805
1580511355.644,12805
1580511365.645,12805
1580511375.646,12805
1580511385.645,12805
1580511395.646,12805
1580511405.645,12805
1580511415.646,12805
1580511425.644,12805
1580511435.645,12805
1580511445.644,12805
1580511455.644,12805
1580511465.645,12805
1580511475.644,12806
1580511485.644,12806
1580511495.644,12806
1580511505.645,12806
1580511515.648,12810
1580511525.644,12810
1580511535.644,12810
1580511545.645,12810
1580511555.645,12810
1580511565.646,12810
1580511575.645,12810
1580511585.645,12810
1580511595.644,12811
