epoch,value
1579927299.126,0
1579927309.126,0
1579927319.126,0
1579927329.126,0
1579927339.126,0
1579927349.126,0
1579927359.126,0
1579927369.126,0
1579927379.126,0
1579927389.126,1
1579927399.126,1
1579927409.126,2
1579927419.126,2
1579927429.126,2
1579927439.126,2
1579927449.126,3
1579927459.126,3
1579927469.126,3
1579927479.126,4
1579927489.126,4
1579927499.126,4
1579927509.126,4
1579927519.126,4
1579927529.126,5
1579927539.126,5
1579927549.126,5
1579927559.126,5
1579927569.126,5
1579927579.126,6
1579927589.126,6
1579927599.126,6
1579927609.126,6
1579927619.126,6
1579927629.126,6
1579927639.126,6
1579927649.126,7
1579927659.126,7
1579927669.126,7
1579927679.126,7
1579927689.126,7
1579927699.126,7
1579927709.126,7
1579927719.126,7
1579927729.126,7
1579927739.126,7
1579927749.126,7
1579927759.127,7
1579927769.126,7
1579927779.126,7
1579927799.126,7
1579927809.126,7
1579927819.126,7
1579927829.126,7
1579927839.126,7
1579927849.126,7
1579927859.126,7
1579927869.126,7
1579927879.126,7
1579927889.126,7
1579927899.126,7
1579927909.126,7
1579927919.126,7
1579927929.126,7
1579927939.126,7
1579927949.126,7
1579927959.126,7
1579927969.126,7
1579927979.126,7
1579927989.130,7
1579927999.126,7
1579928009.126,7
1579928019.126,8
1579928029.126,8
1579928039.126,8
1579928049.126,8
1579928059.126,8
1579928069.126,8
1579928079.126,8
1579928089.126,8
1579928099.126,8
1579928109.126,8
1579928119.126,8
1579928129.126,8
1579928139.126,8
1579928149.126,8
1579928159.126,8
1579928169.126,8
1579928179.126,8
1579928189.126,8
1579928199.126,8
1579928209.126,8
1579928219.126,8
1579928229.126,8
1579928239.126,8
1579928249.127,8
1579928259.126,8
1579928269.126,8
1579928279.126,8
1579928289.126,8
1579928299.126,8
1579928309.130,8
1579928319.126,9
1579928329.126,9
1579928339.126,9
1579928349.126,9
1579928359.126,9
1579928369.126,9
1579928379.126,9
1579928389.126,9
1579928399.129,9
1579928409.126,9
1579928419.126,9
1579928439.126,9
1579928449.126,9
1579928459.126,9
1579928469.126,9
1579928479.126,9
1579928489.126,9
1579928499.126,9
1579928509.126,9
1579928519.126,9
1579928529.126,9
1579928539.126,9
1579928549.126,9
1579928559.126,9
1579928569.126,10
1579928579.126,10
1579928589.126,10
1579928599.126,10
1579928609.126,10
1579928619.126,10
1579928629.126,10
1579928639.126,10
1579928659.126,10
1579928669.126,10
1579928679.126,10
1579928689.126,10
1579928699.126,10
1579928709.126,10
1579928719.126,10
1579928729.126,10
1579928739.126,10
1579928749.126,10
1579928759.126,10
1579928769.126,10
1579928779.126,10
1579928789.126,10
1579928799.126,11
1579928809.126,11
1579928819.126,11
1579928829.126,11
1579928839.126,11
1579928849.126,11
1579928859.126,11
1579928869.126,11
1579928879.126,11
1579928889.126,11
1579928899.126,11
1579928909.126,11
1579928919.126,11
1579928929.126,11
1579928939.126,11
1579928949.126,11
1579928959.126,11
1579928969.126,11
1579928979.126,11
1579928989.126,11
1579928999.126,11
1579929009.126,11
1579929019.126,11
1579929029.126,11
1579929039.126,11
1579929049.127,11
1579929059.126,11
1579929069.126,11
1579929079.126,11
1579929089.126,12
1579929099.126,12
1579929109.126,12
1579929119.126,12
1579929129.126,12
1579929139.126,12
1579929149.126,12
1579929159.126,12
1579929169.126,12
1579929179.126,12
1579929189.126,12
1579929199.126,12
1579929209.126,12
1579929219.126,12
1579929229.126,12
1579929239.126,12
1579929249.126,12
1579929259.126,12
1579929269.126,12
1579929279.126,12
1579929289.126,13
1579929299.126,13
1579929309.126,13
1579929319.126,13
1579929329.126,13
1579929339.126,13
1579929349.126,13
1579929359.126,13
1579929369.126,13
1579929379.126,13
1579929389.126,13
1579929399.126,13
1579929409.126,13
1579929419.126,13
1579929429.126,13
1579929439.126,13
1579929449.126,13
1579929459.126,13
1579929469.130,13
1579929479.126,13
1579929499.126,13
1579929509.126,13
1579929519.126,13
1579929529.126,13
1579929539.126,13
1579929549.126,13
1579929559.126,13
1579929569.126,13
1579929579.126,13
1579929589.126,13
1579929599.126,14
1579929609.126,14
1579929619.126,14
1579929629.126,14
1579929639.126,14
1579929649.126,14
1579929659.126,14
1579929669.126,14
1579929679.126,14
1579929689.126,14
1579929699.126,14
1579929709.126,14
1579929719.126,14
1579929729.126,14
1579929739.126,14
1579929749.126,14
1579929759.126,14
1579929769.126,14
1579929779.130,14
1579929789.126,14
1579929799.126,14
1579929809.126,14
1579929819.126,14
1579929829.126,14
1579929839.126,14
1579929849.126,14
1579929859.126,14
1579929869.126,14
1579929879.126,14
1579929889.126,14
1579929899.126,15
1579929909.129,15
1579929919.126,15
1579929929.126,15
1579929939.126,15
1579929949.126,15
1579929959.126,15
1579929969.126,15
1579929979.126,15
1579929989.126,15
1579929999.126,15
1579930009.126,15
1579930019.126,15
1579930029.126,15
