epoch,value
1580511605.377,126
1580511615.377,126
1580511625.377,126
1580511635.377,126
1580511645.382,126
1580511655.377,126
1580511665.377,126
1580511675.377,126
1580511685.377,126
1580511705.377,127
1580511715.377,127
1580511725.377,127
1580511735.377,127
1580511745.377,127
1580511755.377,127
1580511765.377,127
1580511775.377,127
1580511785.377,127
1580511795.377,127
1580511805.377,127
1580511815.377,127
1580511825.377,127
1580511835.377,127
1580511845.377,127
1580511855.377,127
1580511865.377,127
1580511875.377,127
1580511885.377,127
1580511895.377,127
1580511905.377,127
1580511915.377,127
1580511925.377,127
1580511935.377,127
1580511945.377,127
1580511955.377,127
1580511965.377,127
1580511975.377,127
1580511985.377,127
1580511995.377,127
1580512005.377,127
1580512015.377,127
1580512025.377,127
1580512035.377,127
1580512045.377,127
1580512055.377,127
1580512065.377,127
1580512075.377,127
1580512085.377,127
1580512095.377,127
1580512105.377,127
1580512115.377,127
1580512125.377,127
1580512135.377,127
1580512145.377,127
1580512155.377,127
1580512165.377,127
1580512175.377,127
1580512185.377,127
1580512195.377,127
1580512205.377,127
1580512215.377,127
1580512225.377,127
1580512235.377,128
1580512245.377,128
1580512255.377,128
1580512265.377,128
1580512275.377,128
1580512285.377,128
1580512295.377,128
1580512305.377,128
1580512315.377,128
1580512325.377,128
1580512335.377,128
1580512345.377,128
1580512355.377,128
1580512365.377,128
1580512375.377,128
1580512385.377,128
1580512395.377,128
1580512405.377,128
1580512415.377,128
1580512425.377,128
1580512435.377,128
1580512445.377,128
1580512455.377,128
1580512465.377,128
1580512475.377,128
1580512485.377,128
1580512495.377,128
1580512505.377,128
1580512515.377,128
1580512525.377,128
1580512535.377,128
1580512545.377,128
1580512555.377,128
1580512565.377,128
1580512575.377,128
1580512585.377,128
1580512595.377,129
1580512605.377,129
1580512615.377,129
1580512625.377,129
1580512635.377,129
1580512655.377,129
1580512665.377,129
1580512675.377,129
1580512685.377,129
1580512695.377,129
1580512705.377,129
1580512715.377,129
1580512725.377,129
1580512735.377,129
1580512745.377,129
1580512755.377,129
1580512765.377,130
1580512775.377,130
1580512785.377,130
1580512795.377,130
1580512805.377,130
1580512815.377,130
1580512825.377,130
1580512835.377,130
1580512845.377,130
1580512855.377,131
1580512865.377,131
1580512875.377,131
1580512885.377,131
1580512895.377,131
1580512905.377,131
1580512915.377,131
1580512925.377,131
1580512935.377,131
1580512945.377,131
1580512955.377,132
1580512965.377,132
1580512975.377,132
1580512985.377,132
1580512995.377,132
1580513005.377,132
1580513015.377,132
1580513025.377,132
1580513035.377,132
1580513045.377,132
1580513055.377,132
1580513065.377,132
1580513075.377,132
1580513085.377,132
1580513095.377,132
1580513105.377,132
1580513115.377,132
1580513125.377,133
1580513135.377,133
1580513145.377,133
1580513155.381,133
1580513165.377,133
1580513175.377,133
1580513185.377,133
1580513195.377,133
1580513205.377,133
1580513215.377,133
1580513225.377,133
1580513235.377,133
1580513245.377,133
1580513255.377,133
1580513265.377,133
1580513275.377,133
1580513285.377,134
1580513295.377,134
1580513305.377,134
1580513315.377,134
1580513325.377,134
1580513335.377,134
1580513345.377,134
1580513355.377,134
1580513365.377,134
1580513375.377,134
1580513385.377,134
1580513395.377,134
1580513405.377,135
1580513415.377,135
1580513425.377,135
1580513435.377,135
1580513445.377,135
1580513455.377,135
1580513465.377,135
1580513475.377,135
1580513485.377,135
1580513495.377,135
1580513505.377,135
1580513515.377,135
1580513525.377,135
1580513535.377,135
1580513545.377,135
1580513555.377,135
1580513565.377,135
1580513575.377,135
1580513585.377,135
1580513595.377,135
1580513605.377,135
1580513615.377,135
1580513625.377,136
1580513635.377,136
1580513645.377,136
1580513655.377,136
1580513665.377,136
1580513675.377,136
1580513685.377,136
1580513695.377,136
1580513705.377,136
1580513715.377,136
1580513725.377,136
1580513735.377,136
1580513745.377,136
1580513755.377,136
1580513765.377,136
1580513775.377,136
1580513785.377,136
1580513795.377,137
1580513805.377,137
1580513815.377,137
1580513825.377,137
1580513835.377,137
1580513845.377,137
1580513855.377,137
1580513865.377,137
1580513875.377,137
1580513885.377,137
1580513895.377,137
1580513905.377,137
1580513915.377,137
1580513925.377,137
1580513935.382,137
1580513945.377,137
1580513955.377,137
1580513965.377,137
1580513975.377,137
1580513985.377,137
1580513995.377,137
1580514005.377,137
1580514015.377,137
1580514025.377,137
1580514035.377,137
1580514045.377,137
1580514055.377,137
1580514065.377,137
1580514075.377,137
1580514085.377,137
1580514095.377,137
1580514105.377,137
1580514115.377,137
1580514125.377,137
1580514135.377,137
1580514145.377,137
1580514155.377,137
1580514165.377,137
1580514175.377,137
1580514185.377,137
1580514195.377,137
1580514205.377,137
1580514215.377,137
1580514225.377,137
1580514235.377,137
1580514245.377,137
1580514255.377,138
1580514265.377,138
1580514275.377,138
1580514285.377,138
1580514295.377,138
1580514305.377,138
1580514315.377,138
1580514325.377,138
1580514335.377,138
1580514345.377,138
1580514355.377,138
1580514365.377,138
1580514375.377,138
1580514385.377,138
1580514395.377,138
1580514405.377,138
1580514415.377,138
1580514425.377,138
1580514435.377,138
1580514445.377,138
1580514455.377,138
1580514465.377,138
1580514475.377,138
1580514485.377,138
1580514495.377,138
1580514505.377,138
1580514515.377,138
1580514525.377,138
1580514535.377,139
1580514545.377,139
1580514555.377,139
1580514565.377,139
1580514575.377,139
1580514585.377,139
1580514595.377,139
1580514605.377,139
1580514615.377,139
1580514625.377,139
1580514635.377,139
1580514645.377,139
1580514655.377,139
1580514665.377,139
1580514675.377,139
1580514685.377,139
1580514695.377,139
1580514705.377,139
1580514715.377,139
1580514725.377,139
1580514735.377,139
1580514745.377,139
1580514755.377,139
1580514765.377,139
1580514775.377,139
1580514785.377,139
1580514795.377,139
1580514805.377,139
1580514815.377,139
1580514825.377,139
1580514835.377,139
1580514845.377,140
1580514855.377,140
1580514865.377,140
1580514875.377,140
1580514885.377,140
1580514895.377,140
1580514905.377,140
1580514915.377,140
1580514925.377,140
1580514935.377,140
1580514945.377,140
1580514955.377,140
1580514965.377,140
1580514975.382,140
1580514985.377,140
1580514995.377,140
1580515005.377,140
1580515015.377,140
1580515025.377,140
1580515035.377,140
1580515045.377,140
1580515055.377,140
1580515065.377,140
1580515075.377,140
1580515085.377,140
1580515095.377,140
1580515105.377,140
1580515115.377,140
1580515125.377,140
1580515135.377,141
1580515145.377,141
1580515155.377,141
1580515165.377,141
1580515175.377,141
1580515185.377,141
1580515195.377,141
1580515205.377,141
1580515215.377,141
1580515225.377,141
1580515235.377,141
1580515245.377,141
1580515255.377,141
1580515265.377,141
1580515275.377,141
1580515285.377,141
1580515295.377,141
1580515305.377,141
1580515315.377,141
1580515325.377,141
1580515335.378,141
1580515345.377,141
1580515355.377,141
1580515365.377,142
1580515375.377,142
1580515385.377,142
1580515395.377,142
1580515405.377,142
1580515415.377,142
1580515425.377,142
1580515435.377,142
1580515445.377,142
1580515455.377,142
1580515465.377,142
1580515475.377,142
1580515485.377,142
1580515495.377,142
1580515505.377,142
1580515515.377,142
1580515525.377,142
1580515535.377,142
1580515545.377,142
1580515555.377,142
1580515565.377,142
1580515575.377,142
1580515585.377,142
1580515595.377,142
1580515605.377,142
1580515615.377,142
1580515625.377,142
1580515635.377,142
1580515645.377,142
1580515655.377,142
1580515665.377,142
1580515675.377,142
1580515685.377,142
1580515695.377,142
1580515705.377,142
1580515715.377,143
1580515725.377,143
1580515735.377,143
1580515745.377,143
1580515755.377,143
1580515765.377,143
1580515775.377,143
1580515785.377,143
1580515795.377,143
1580515805.377,143
1580515815.377,143
1580515825.377,143
1580515835.377,143
1580515845.377,143
1580515855.377,143
1580515865.377,143
1580515875.377,143
1580515885.377,143
1580515895.377,143
1580515905.377,143
1580515915.377,143
1580515925.377,143
1580515935.377,143
1580515945.377,143
1580515955.377,143
1580515965.377,143
1580515975.377,143
1580515985.377,143
1580515995.377,143
1580516005.377,143
1580516015.377,144
1580516025.377,144
1580516035.377,144
1580516045.377,144
1580516055.377,144
1580516065.377,144
1580516075.377,144
1580516085.377,144
1580516095.377,144
1580516105.377,144
1580516115.377,144
1580516125.377,144
1580516135.377,144
1580516145.377,144
1580516155.377,144
1580516165.377,144
1580516175.377,144
1580516185.377,144
1580516195.377,145
1580516205.377,145
1580516215.377,145
1580516225.377,145
1580516235.377,145
1580516245.377,145
1580516255.377,145
1580516265.377,145
1580516275.377,145
1580516285.377,145
1580516295.377,145
1580516305.377,145
1580516315.377,145
1580516325.377,145
1580516335.377,145
1580516345.377,145
1580516355.377,145
1580516365.377,145
1580516375.377,145
1580516385.377,145
1580516395.377,145
1580516405.377,145
1580516415.377,145
1580516425.377,145
1580516435.377,145
1580516445.377,145
1580516455.377,145
1580516465.377,145
1580516475.377,145
1580516485.377,145
1580516495.377,145
1580516505.377,146
1580516515.377,146
1580516525.377,146
1580516535.377,146
1580516545.377,146
1580516555.377,146
1580516565.377,146
1580516575.377,146
1580516585.377,146
1580516595.377,146
1580516605.377,146
1580516615.377,146
1580516625.377,146
1580516635.377,146
1580516645.377,146
1580516655.377,146
1580516665.377,146
1580516675.377,146
1580516685.377,146
1580516695.377,146
1580516705.377,147
1580516715.377,147
1580516725.377,147
1580516735.377,147
1580516745.377,147
1580516755.377,147
1580516765.377,147
1580516775.377,147
1580516785.377,147
1580516795.377,147
1580516805.377,147
1580516815.377,147
1580516825.377,147
1580516835.377,147
1580516845.377,147
1580516855.377,147
1580516865.377,147
1580516875.377,147
1580516885.377,147
1580516895.377,147
1580516905.377,147
1580516915.377,147
1580516925.377,147
1580516935.377,147
1580516945.377,147
1580516955.377,147
1580516965.377,147
1580516975.377,147
1580516985.377,147
1580516995.377,147
1580517005.377,147
1580517015.377,147
1580517025.377,147
1580517035.377,147
1580517045.377,147
1580517055.377,147
1580517065.377,148
1580517075.377,148
1580517085.377,148
1580517095.377,148
1580517105.377,148
1580517115.377,148
1580517125.377,148
1580517135.377,148
1580517145.377,148
1580517155.377,148
1580517165.377,148
1580517175.377,148
1580517185.377,148
1580517195.377,148
1580517205.377,148
1580517215.377,148
1580517225.377,148
1580517235.377,149
1580517245.377,149
1580517255.377,149
1580517265.377,149
1580517275.377,149
1580517285.377,149
1580517295.377,149
1580517305.377,149
1580517315.377,149
1580517325.377,149
1580517335.377,149
1580517345.377,149
1580517355.377,149
1580517365.377,149
1580517375.377,149
1580517385.377,149
1580517395.377,149
1580517405.377,150
1580517415.377,150
1580517425.377,150
1580517435.377,150
1580517445.377,150
1580517455.377,150
1580517465.377,150
1580517475.377,150
1580517485.377,150
1580517495.377,150
1580517505.377,150
1580517515.377,150
1580517525.377,150
1580517535.377,150
1580517545.377,150
1580517555.377,150
1580517565.377,150
1580517575.377,150
