epoch,value
1580239347.621,0
1580239357.621,0
1580239367.621,0
1580239377.621,0
1580239387.621,0
1580239397.621,0
1580239407.621,1
1580239417.621,2
1580239427.621,3
1580239437.621,3
1580239447.622,14
1580239467.621,17
1580239477.621,19
1580239487.621,24
1580239497.621,30
1580239507.621,43
1580239517.621,49
1580239527.621,50
1580239537.621,51
1580239547.621,51
1580239557.621,52
1580239567.621,53
1580239587.621,54
1580239597.621,54
1580239607.621,55
1580239617.621,55
1580239627.621,56
1580239637.621,56
1580239647.621,56
1580239657.621,57
1580239667.628,58
1580239677.621,58
1580239687.621,58
1580239697.621,58
1580239707.621,58
1580239717.621,58
1580239727.621,58
1580239737.621,58
1580239747.621,58
1580239757.621,58
1580239767.621,58
1580239777.621,58
1580239787.621,58
1580239797.621,58
1580239807.621,58
1580239817.621,58
1580239827.621,58
1580239837.621,58
1580239847.621,58
1580239857.628,58
1580239867.621,58
1580239877.621,58
1580239887.621,58
1580239897.621,59
1580239907.621,59
1580239917.621,59
1580239927.621,59
1580239937.621,59
1580239947.621,59
1580239957.621,59
1580239967.621,59
1580239977.621,59
1580239987.621,59
1580239997.621,59
1580240007.621,59
1580240017.621,59
1580240027.621,59
1580240037.621,59
1580240047.621,59
1580240057.621,59
1580240067.621,59
1580240077.621,59
1580240087.621,59
1580240097.621,59
1580240107.621,59
1580240117.621,59
1580240127.621,59
1580240137.621,59
1580240147.621,59
1580240157.621,59
1580240167.621,59
1580240177.621,59
1580240187.621,59
1580240197.621,59
1580240207.621,59
1580240217.621,59
1580240227.621,59
1580240237.621,59
1580240247.621,59
1580240257.621,59
1580240267.621,59
1580240277.621,59
1580240287.621,59
1580240297.621,59
1580240307.621,59
1580240317.621,59
1580240327.621,59
1580240337.621,59
1580240347.621,59
1580240357.621,59
1580240367.621,59
1580240377.621,59
1580240387.626,59
1580240397.621,59
1580240407.621,59
1580240417.621,59
1580240427.621,59
1580240437.621,59
1580240447.621,59
1580240457.621,60
1580240467.621,60
1580240477.621,60
1580240487.621,60
1580240497.621,60
1580240507.621,60
1580240517.621,60
1580240527.621,60
1580240537.621,60
1580240547.621,60
1580240557.621,60
1580240567.621,60
1580240577.625,60
1580240587.621,60
1580240597.621,60
1580240607.621,60
1580240617.621,60
1580240627.621,60
1580240637.628,60
1580240647.621,60
1580240657.621,60
1580240667.621,60
1580240677.621,60
1580240687.621,60
1580240697.621,60
1580240707.621,60
1580240717.621,61
1580240727.621,61
1580240737.621,61
1580240747.621,61
1580240757.621,61
1580240767.621,61
1580240777.621,61
1580240787.621,61
1580240797.621,61
1580240807.621,61
1580240817.621,61
1580240827.621,61
1580240837.621,61
1580240847.621,61
1580240857.621,61
1580240867.621,61
1580240877.621,61
1580240887.621,61
1580240897.621,61
1580240907.621,61
1580240917.621,61
1580240927.621,61
1580240937.621,61
1580240947.621,61
1580240957.621,61
1580240967.621,61
1580240977.621,61
1580240987.621,61
1580240997.621,62
1580241007.621,62
1580241017.621,62
1580241027.621,62
1580241037.621,62
1580241047.621,62
1580241057.621,62
1580241067.621,62
1580241077.621,62
1580241087.621,62
1580241097.621,62
1580241107.621,62
1580241117.621,62
1580241127.625,62
1580241137.621,62
1580241147.621,62
1580241157.621,62
1580241167.621,62
1580241177.621,62
1580241187.621,62
1580241197.621,62
1580241207.621,62
1580241217.621,62
1580241227.621,62
1580241237.621,62
1580241247.621,62
1580241257.621,62
1580241267.621,62
1580241277.621,62
1580241287.621,62
1580241297.621,62
1580241307.621,62
1580241317.621,62
1580241327.621,62
1580241337.621,62
1580241347.621,63
1580241357.621,63
1580241367.621,63
1580241377.621,63
1580241387.621,63
1580241397.621,63
1580241407.621,63
1580241417.621,63
1580241427.621,63
1580241437.621,63
1580241447.621,63
1580241457.621,63
1580241467.621,63
1580241477.621,63
1580241487.621,63
1580241497.621,63
1580241507.621,63
1580241517.621,64
1580241527.621,64
1580241537.621,64
1580241547.621,64
1580241557.621,64
1580241567.621,64
1580241577.621,64
1580241587.621,64
1580241597.621,64
1580241607.621,64
1580241617.621,64
1580241627.621,64
1580241637.621,64
1580241647.621,65
1580241657.621,65
1580241667.621,65
1580241677.621,65
1580241687.621,65
1580241697.621,65
1580241707.621,65
1580241717.621,65
1580241727.621,65
1580241737.621,65
1580241747.621,65
1580241757.621,65
1580241767.621,65
1580241777.621,65
1580241787.621,65
1580241797.621,65
1580241807.621,65
1580241817.621,65
1580241827.621,66
1580241837.621,66
1580241847.621,66
1580241857.621,66
1580241867.621,66
1580241877.621,66
1580241887.621,66
1580241897.621,66
1580241907.621,66
1580241917.621,66
1580241927.621,66
1580241937.621,66
1580241947.621,66
1580241957.621,66
1580241967.621,66
1580241977.621,66
1580241987.621,66
1580241997.621,66
1580242007.621,66
1580242017.621,66
1580242027.621,66
1580242037.621,67
1580242047.621,67
1580242057.621,67
1580242067.621,67
1580242077.621,67
