epoch,value
1579788717.373,0
1579788727.371,0
1579788737.371,0
1579788747.371,2
1579788757.371,4
1579788767.371,11
1579788777.372,11
1579788787.376,11
1579788797.371,28
1579788807.371,29
1579788817.371,29
1579788827.371,31
1579788837.372,31
1579788847.371,31
1579788857.371,32
1579788867.372,53
1579788877.371,62
1579788887.371,65
1579788897.371,66
1579788907.371,67
1579788917.371,67
1579788927.371,68
1579788937.371,68
1579788947.371,68
1579788957.371,68
1579788967.371,68
1579788977.371,68
1579788987.371,69
1579788997.371,69
1579789007.371,69
1579789017.371,70
1579789027.371,72
1579789037.371,72
1579789047.371,72
1579789057.371,73
1579789067.371,73
1579789077.373,73
1579789087.371,73
1579789097.371,73
1579789107.371,73
1579789117.371,73
1579789127.371,73
1579789137.371,73
1579789147.371,73
1579789157.371,73
1579789167.371,73
1579789177.371,73
1579789187.371,73
1579789197.373,73
1579789207.371,73
1579789217.371,73
1579789227.371,73
1579789237.371,73
1579789247.372,73
1579789257.371,73
1579789267.371,73
1579789277.371,73
1579789287.371,73
1579789297.371,73
1579789307.377,73
1579789317.371,73
1579789327.371,73
1579789337.371,73
1579789347.373,73
1579789357.371,73
1579789367.371,73
1579789377.371,73
1579789387.376,73
1579789397.371,73
1579789407.371,73
1579789417.371,73
1579789427.371,73
1579789437.371,73
1579789447.371,73
1579789457.371,73
1579789467.371,73
1579789477.371,73
1579789487.371,73
1579789497.371,73
1579789507.371,73
1579789517.371,73
1579789527.371,73
1579789537.371,73
1579789547.371,73
1579789557.371,73
1579789567.371,73
1579789577.371,74
1579789587.371,74
1579789597.371,74
1579789607.371,74
1579789617.371,74
1579789627.371,74
1579789637.371,74
1579789647.371,74
1579789657.371,74
1579789667.371,74
1579789677.371,74
1579789687.371,74
1579789697.371,74
1579789707.373,74
1579789717.371,74
1579789727.371,74
1579789737.373,74
1579789747.371,74
1579789757.371,74
1579789767.371,74
1579789777.371,74
1579789787.371,74
1579789797.371,74
1579789807.371,74
1579789817.371,74
1579789827.377,74
1579789837.371,74
1579789847.371,74
1579789857.371,74
1579789867.371,74
1579789877.371,74
1579789887.371,74
1579789897.371,74
1579789907.371,74
1579789917.371,74
1579789927.371,74
1579789937.371,74
1579789947.371,75
1579789957.371,75
1579789967.371,75
1579789977.371,75
1579789987.371,75
1579789997.371,75
1579790007.371,75
1579790017.371,75
1579790027.371,75
1579790037.371,75
1579790047.371,75
1579790057.371,75
1579790067.371,75
1579790077.371,75
1579790087.371,75
1579790097.371,76
1579790107.371,76
1579790117.371,76
1579790127.371,76
1579790137.371,76
1579790147.371,76
1579790157.371,76
1579790167.371,76
1579790177.371,76
1579790187.371,76
1579790197.371,76
1579790207.371,76
1579790217.371,76
1579790227.371,76
1579790237.371,76
1579790247.371,76
