epoch,value
1580478185.605,0
1580478195.605,0
1580478205.605,0
1580478215.605,0
1580478225.605,0
1580478235.605,0
1580478245.605,0
1580478255.605,0
1580478265.605,0
1580478275.605,0
1580478285.605,0
1580478295.605,0
1580478305.605,0
1580478315.605,0
1580478325.605,0
1580478335.605,0
1580478345.605,0
1580478355.605,0
1580478365.605,0
1580478375.605,0
1580478385.605,0
1580478395.605,0
1580478405.605,0
1580478415.605,0
1580478425.605,0
1580478435.605,0
1580478445.605,0
1580478455.605,0
1580478465.605,0
1580478475.605,0
1580478485.605,0
1580478495.605,0
1580478505.605,0
1580478515.605,0
1580478525.605,0
1580478535.605,0
1580478545.605,0
1580478555.605,0
1580478565.605,0
1580478575.605,0
1580478585.605,0
1580478595.605,0
1580478605.605,0
1580478615.605,0
1580478625.605,0
1580478635.605,0
1580478645.605,0
1580478655.605,0
1580478665.605,0
1580478675.605,0
1580478685.605,0
1580478695.616,0
1580478705.605,0
1580478715.605,0
1580478725.605,0
1580478735.605,0
1580478745.611,0
1580478755.605,0
1580478765.605,0
1580478775.607,0
1580478785.605,0
1580478795.605,0
1580478805.605,0
1580478815.605,1
1580478825.605,1
1580478835.605,1
1580478845.605,1
1580478855.605,1
1580478865.613,1
1580478875.605,1
1580478885.605,1
1580478895.605,1
1580478905.605,1
1580478915.605,1
1580478925.605,1
1580478935.605,1
1580478945.605,1
1580478955.605,1
1580478965.605,1
1580478975.605,1
1580478985.605,1
1580478995.605,1
1580479005.605,1
1580479015.605,1
1580479025.605,1
1580479035.605,1
1580479045.605,1
1580479055.605,1
1580479065.605,1
1580479075.605,1
1580479085.605,1
1580479095.605,1
1580479105.605,1
1580479115.605,1
1580479125.605,1
1580479135.605,2
1580479145.605,2
1580479155.605,2
1580479165.605,2
1580479175.605,2
1580479185.605,2
1580479195.605,2
1580479205.605,2
1580479215.605,2
1580479225.605,2
1580479235.605,2
1580479245.605,2
1580479255.605,2
1580479265.605,2
1580479275.605,2
1580479285.605,2
1580479295.605,2
1580479305.605,2
1580479315.605,2
1580479325.605,2
1580479335.605,2
1580479345.605,2
1580479355.605,2
1580479365.605,2
1580479375.605,2
1580479385.605,2
1580479395.605,2
1580479405.605,2
1580479415.609,2
1580479425.605,2
1580479435.605,2
1580479445.605,2
1580479455.605,2
1580479465.605,2
1580479475.605,2
1580479485.605,2
1580479495.605,2
1580479505.605,2
1580479515.605,2
1580479525.605,2
1580479535.605,2
1580479545.605,2
1580479555.605,2
1580479565.605,2
1580479575.605,2
1580479585.605,2
1580479595.605,2
1580479605.605,2
1580479615.605,2
1580479625.605,2
1580479635.605,2
1580479645.605,2
1580479655.605,2
1580479665.605,2
1580479675.605,2
1580479685.605,2
1580479695.605,2
1580479705.605,2
1580479715.605,3
