epoch,value
1580526126.255,0
1580526136.255,0
1580526146.255,0
1580526156.261,0
1580526166.255,6
1580526176.255,11
1580526186.255,16
1580526196.255,21
1580526206.267,31
1580526216.255,32
1580526226.255,32
1580526236.255,35
1580526246.255,42
1580526256.255,42
1580526266.255,43
1580526276.255,47
1580526286.255,47
1580526296.255,47
1580526306.255,48
1580526316.255,49
1580526326.255,56
1580526336.255,56
1580526346.255,57
1580526356.255,57
1580526366.255,65
1580526376.255,66
1580526386.255,71
1580526396.255,71
1580526406.255,79
1580526416.255,79
1580526426.255,82
1580526436.255,83
1580526446.255,84
1580526456.255,84
1580526466.255,84
1580526476.255,84
1580526486.255,84
1580526496.255,84
1580526506.255,84
1580526516.255,84
1580526526.255,84
1580526536.255,84
1580526546.255,84
1580526556.255,84
1580526566.255,84
1580526576.255,85
1580526586.255,85
1580526596.255,85
1580526606.255,85
1580526616.262,85
1580526626.255,85
1580526636.255,85
1580526646.255,85
1580526656.255,85
1580526666.255,85
1580526676.255,85
1580526686.255,85
1580526696.255,85
1580526706.255,85
1580526716.255,85
1580526726.255,85
1580526736.256,85
1580526746.255,85
1580526756.255,85
1580526766.255,85
1580526776.255,85
1580526786.255,85
1580526796.255,85
1580526806.255,85
1580526816.255,85
1580526826.255,85
1580526836.255,85
1580526846.255,85
1580526856.255,85
1580526866.255,85
1580526876.255,85
1580526886.255,85
1580526896.255,85
1580526906.255,85
1580526916.255,85
1580526926.255,85
1580526936.255,85
1580526946.255,85
1580526956.255,85
1580526966.255,85
1580526976.255,85
1580526986.255,85
1580526996.255,85
1580527006.255,85
1580527016.255,85
1580527026.255,85
1580527036.255,85
1580527046.255,85
1580527056.255,85
1580527066.255,85
1580527076.255,85
1580527086.255,86
1580527096.255,86
1580527106.255,86
1580527116.255,86
1580527126.255,86
1580527136.255,86
1580527146.255,86
1580527156.255,86
1580527166.255,86
1580527176.255,86
1580527186.255,86
1580527196.255,86
1580527206.255,86
1580527216.255,86
1580527226.255,86
1580527236.255,86
1580527246.255,86
1580527256.255,86
1580527266.255,86
1580527276.255,86
1580527286.256,86
1580527296.255,86
1580527306.255,86
1580527316.255,86
1580527326.255,86
1580527336.261,86
1580527346.255,86
1580527356.256,86
1580527366.255,86
1580527376.255,86
1580527386.255,86
1580527396.255,86
1580527406.255,86
1580527416.255,86
1580527426.255,86
1580527436.255,86
1580527446.255,86
1580527456.255,86
1580527466.255,86
1580527476.255,86
1580527486.261,86
1580527496.255,87
1580527506.258,87
1580527516.255,87
1580527526.255,87
1580527536.255,87
1580527546.255,87
1580527556.255,87
1580527566.255,87
1580527576.255,87
1580527586.255,87
1580527596.255,87
1580527606.255,87
1580527616.255,87
1580527626.255,87
1580527636.255,87
1580527646.255,87
1580527656.255,87
1580527666.255,87
1580527676.255,88
1580527686.255,88
1580527696.255,88
1580527706.255,88
1580527716.255,88
1580527726.255,88
1580527736.255,88
1580527746.255,88
1580527756.255,88
1580527766.255,88
1580527776.255,88
1580527786.255,88
1580527796.255,88
1580527806.255,88
1580527816.255,88
1580527826.255,88
1580527836.255,88
1580527846.255,88
1580527856.255,88
1580527866.255,88
1580527876.255,89
1580527886.255,89
1580527896.255,89
1580527906.255,89
1580527916.255,89
1580527926.255,89
1580527936.255,89
1580527946.255,89
1580527956.255,89
1580527966.255,89
1580527976.255,89
1580527986.255,89
1580527996.255,89
1580528006.255,89
1580528016.255,89
1580528026.255,89
1580528036.255,89
1580528046.255,89
1580528056.255,89
1580528066.255,89
1580528076.255,89
1580528086.255,89
1580528096.255,89
1580528106.255,89
1580528116.255,89
1580528126.255,89
1580528136.255,89
1580528146.255,89
1580528156.255,89
1580528166.255,89
1580528176.255,89
1580528186.255,89
1580528196.255,89
1580528206.255,89
1580528216.255,89
1580528226.255,89
1580528236.255,89
1580528246.255,89
1580528256.255,89
1580528266.255,89
1580528276.255,89
1580528286.255,90
1580528296.255,90
1580528306.255,90
1580528316.255,90
1580528326.255,90
1580528336.255,90
1580528346.255,90
1580528356.255,90
1580528366.255,90
1580528376.255,90
1580528386.255,90
1580528396.255,90
1580528406.255,90
1580528416.255,90
1580528426.255,90
1580528436.255,90
1580528446.255,90
1580528456.255,90
1580528466.255,90
1580528476.255,90
1580528486.255,90
1580528496.255,90
1580528506.255,90
1580528516.255,90
1580528526.255,90
1580528536.255,90
1580528546.255,90
1580528556.255,90
1580528566.255,90
1580528576.255,90
1580528586.255,90
1580528596.255,90
1580528606.255,90
1580528616.255,90
1580528626.255,90
1580528636.255,90
1580528646.255,90
1580528656.255,90
1580528666.255,90
1580528676.255,90
1580528686.255,90
1580528696.255,90
1580528706.255,90
1580528716.255,90
1580528726.255,90
1580528736.255,91
1580528746.255,91
1580528756.255,91
1580528766.255,91
1580528776.255,91
1580528786.255,91
1580528796.255,91
1580528806.255,91
1580528816.255,91
1580528826.255,91
1580528836.255,91
1580528846.255,91
1580528856.255,91
1580528866.255,91
1580528876.255,91
1580528886.255,91
1580528896.255,91
1580528906.255,91
1580528916.255,91
1580528926.255,91
1580528936.255,91
1580528946.255,91
1580528956.255,91
1580528966.255,91
1580528976.255,91
1580528986.255,91
1580528996.255,91
1580529006.255,91
1580529016.255,91
1580529026.255,91
1580529036.255,91
1580529046.255,91
1580529056.255,91
1580529066.255,91
1580529076.255,91
1580529086.255,91
1580529096.255,91
1580529106.255,91
1580529116.255,91
1580529126.255,92
1580529136.255,92
1580529146.255,92
1580529156.255,92
1580529166.255,92
1580529176.255,92
1580529186.255,92
1580529196.255,92
1580529206.255,92
1580529216.255,92
1580529226.255,92
1580529236.255,92
1580529246.258,92
1580529256.255,92
1580529266.255,92
1580529276.255,92
1580529286.255,92
1580529296.255,92
1580529306.255,92
1580529316.255,92
1580529326.255,92
1580529336.255,92
1580529346.255,92
1580529356.255,92
1580529366.255,92
1580529376.255,92
1580529386.255,92
1580529396.255,92
1580529406.255,92
1580529416.255,92
1580529426.255,92
1580529436.255,92
1580529446.255,92
1580529456.261,92
1580529466.255,92
1580529476.255,92
1580529486.257,92
1580529496.259,92
1580529506.255,92
1580529516.255,92
1580529526.255,92
1580529536.255,92
1580529546.255,92
1580529556.255,92
1580529566.255,92
1580529576.255,92
1580529586.255,92
1580529596.255,92
1580529606.255,92
1580529616.255,92
1580529626.255,92
1580529636.255,92
1580529646.255,92
1580529656.255,92
1580529666.255,92
1580529676.255,92
1580529686.255,92
1580529696.255,92
1580529706.255,92
1580529716.255,92
1580529726.255,92
1580529736.255,92
1580529746.255,92
1580529756.255,92
1580529766.255,92
1580529776.255,93
1580529786.255,93
1580529796.255,93
1580529806.255,93
1580529816.255,93
1580529826.255,93
1580529836.255,93
1580529846.255,93
1580529856.255,93
1580529866.255,93
1580529876.255,93
1580529886.255,93
1580529896.255,93
1580529906.255,93
1580529916.255,93
1580529926.255,93
1580529936.255,93
1580529946.255,93
1580529956.255,93
1580529966.255,93
1580529976.255,93
1580529986.255,93
1580529996.255,93
1580530006.255,93
1580530016.255,93
1580530026.255,93
1580530036.255,94
1580530046.255,94
1580530056.255,94
1580530066.255,94
1580530076.255,94
1580530086.255,94
1580530096.255,94
1580530106.255,94
1580530116.255,94
1580530126.255,94
1580530136.255,94
1580530146.255,94
1580530156.255,94
1580530166.255,94
1580530176.255,94
1580530186.255,94
1580530196.255,94
1580530206.255,94
1580530216.255,94
1580530226.255,94
1580530236.255,94
1580530246.255,94
1580530256.255,94
1580530266.255,94
1580530276.255,94
1580530286.255,94
1580530296.255,94
1580530306.255,94
1580530316.255,94
1580530326.255,94
1580530336.255,94
1580530346.255,94
1580530356.255,94
1580530366.255,95
1580530376.255,95
1580530386.255,95
1580530396.255,95
1580530406.255,95
1580530416.255,95
1580530426.255,95
1580530436.255,95
1580530446.255,95
1580530456.255,95
1580530466.255,95
1580530476.255,95
1580530486.255,95
1580530496.255,95
1580530506.255,95
1580530516.255,95
1580530526.255,95
1580530536.255,95
1580530546.255,95
1580530556.255,95
1580530566.256,95
1580530576.255,96
1580530586.255,96
1580530596.255,96
1580530606.255,96
1580530616.255,96
1580530626.255,96
1580530636.255,96
1580530646.255,96
1580530656.255,96
1580530666.255,96
1580530676.255,96
1580530686.255,96
1580530696.255,96
1580530706.255,96
1580530716.255,96
1580530726.255,96
1580530736.255,96
1580530746.255,96
1580530756.255,96
1580530766.255,96
1580530776.255,96
1580530786.255,96
1580530796.255,96
1580530806.255,96
1580530816.255,96
1580530826.255,96
1580530836.255,96
1580530846.255,96
1580530856.255,96
1580530866.255,96
1580530876.255,96
1580530886.255,96
1580530896.255,96
1580530906.255,96
1580530916.260,96
1580530926.255,96
1580530936.256,96
1580530946.255,96
1580530956.256,96
1580530966.255,96
1580530976.255,96
1580530986.255,96
1580530996.255,96
1580531006.255,96
1580531016.255,96
1580531026.255,97
1580531036.255,97
1580531046.255,97
1580531056.255,97
1580531066.255,97
1580531076.255,97
1580531086.255,97
1580531096.255,97
1580531106.255,97
1580531116.255,97
1580531126.255,97
1580531136.255,97
1580531146.255,97
1580531156.255,97
1580531166.255,97
1580531176.255,97
1580531186.255,97
1580531196.255,97
1580531206.255,97
1580531216.255,97
1580531226.255,97
1580531236.255,97
1580531246.255,97
1580531256.255,98
1580531266.255,98
1580531276.255,98
1580531286.255,98
1580531296.255,98
1580531306.255,98
1580531316.255,98
1580531326.255,98
1580531336.255,98
1580531346.255,98
1580531356.255,98
1580531366.255,98
1580531376.255,98
1580531386.255,98
1580531396.255,98
1580531406.255,99
1580531416.255,99
1580531426.255,99
1580531436.255,99
1580531446.255,99
1580531456.255,99
1580531466.255,99
1580531476.255,99
1580531486.255,99
1580531496.255,100
1580531506.255,100
1580531516.255,100
1580531526.255,100
1580531536.255,100
1580531546.255,100
1580531556.255,100
1580531566.255,100
1580531576.255,101
1580531586.255,101
1580531596.255,101
1580531606.255,101
1580531616.255,102
1580531626.255,102
1580531636.255,102
1580531646.255,102
1580531656.255,102
1580531666.255,102
1580531676.255,102
1580531686.255,102
1580531696.255,102
1580531706.255,102
1580531716.255,102
1580531726.255,102
1580531736.255,103
1580531746.255,103
1580531756.255,103
1580531766.255,103
1580531776.255,103
1580531786.255,103
1580531796.255,103
1580531806.255,103
1580531816.261,103
1580531826.255,103
1580531836.255,103
1580531846.255,103
1580531856.255,103
1580531866.255,103
1580531876.255,104
1580531886.255,104
1580531896.255,104
1580531906.255,104
1580531916.255,104
1580531926.255,104
1580531936.255,104
1580531946.255,104
1580531956.255,104
1580531966.255,104
1580531976.255,104
1580531986.255,104
1580531996.255,104
1580532006.255,104
1580532016.255,104
1580532026.255,104
1580532036.255,104
1580532046.255,104
1580532056.257,104
1580532066.255,104
1580532076.255,104
1580532086.255,104
1580532096.255,104
1580532106.255,104
1580532116.255,105
1580532126.255,105
1580532136.255,105
1580532146.255,105
1580532156.255,105
1580532166.255,105
1580532176.255,105
1580532186.255,105
1580532196.255,106
1580532206.255,106
1580532216.255,106
1580532226.255,106
1580532236.255,106
1580532246.255,106
1580532256.255,106
1580532266.255,107
1580532276.255,107
1580532286.255,107
1580532296.255,107
1580532306.255,107
1580532316.255,107
1580532326.255,107
1580532336.255,107
1580532346.255,107
1580532356.255,107
1580532366.255,107
1580532376.255,108
1580532386.255,108
1580532396.255,108
1580532406.255,108
1580532416.255,108
1580532426.255,108
1580532436.255,108
1580532446.255,109
1580532456.255,109
1580532466.255,109
1580532476.255,109
1580532486.255,109
1580532496.255,109
1580532506.255,109
1580532516.255,109
1580532526.255,109
1580532536.255,109
1580532546.255,109
1580532556.255,109
1580532566.255,109
1580532576.255,109
1580532586.255,109
1580532596.255,109
1580532606.255,109
1580532616.255,110
1580532626.255,110
1580532636.255,110
1580532646.255,110
1580532656.255,110
1580532666.255,110
1580532676.255,110
1580532686.255,110
1580532696.255,110
1580532706.255,110
1580532716.255,110
1580532726.255,110
1580532736.255,110
1580532746.255,110
1580532756.255,110
1580532766.255,110
1580532776.255,110
1580532786.257,110
1580532796.256,110
1580532806.255,110
1580532816.255,110
1580532826.255,110
1580532836.255,110
1580532846.255,110
1580532856.257,110
1580532866.255,110
1580532876.255,110
1580532886.255,110
1580532896.255,110
1580532906.255,110
1580532916.255,110
1580532926.255,111
1580532936.255,111
1580532946.255,111
1580532956.255,111
1580532966.255,111
1580532976.255,111
1580532986.255,111
1580532996.255,111
1580533006.255,111
1580533016.255,111
1580533026.255,111
1580533036.255,111
1580533046.255,111
1580533056.255,111
1580533066.255,111
1580533076.255,111
1580533086.255,111
1580533096.255,111
1580533106.255,111
1580533116.255,111
1580533126.255,111
1580533136.255,111
1580533146.255,111
1580533156.255,111
1580533166.258,111
1580533176.255,111
1580533186.255,111
1580533196.255,111
1580533206.255,111
1580533216.255,111
1580533226.255,111
1580533236.255,111
1580533246.255,111
1580533256.255,112
1580533266.255,112
1580533276.255,112
1580533286.255,112
1580533296.255,112
1580533306.255,112
1580533316.255,112
1580533326.255,112
1580533336.255,112
1580533346.255,112
1580533356.255,112
1580533366.255,112
1580533376.255,112
1580533386.255,113
1580533396.255,113
1580533406.255,113
1580533416.255,113
1580533426.255,113
1580533436.257,113
1580533446.255,113
1580533456.255,113
1580533466.255,113
1580533476.255,113
1580533486.255,113
1580533496.255,113
1580533506.261,113
1580533516.255,113
1580533526.255,113
1580533536.255,113
1580533546.255,113
1580533556.255,113
1580533566.255,113
1580533576.255,113
1580533586.255,113
1580533596.255,113
1580533606.255,113
1580533616.255,114
1580533626.255,114
1580533636.255,114
1580533646.255,114
1580533656.255,114
1580533666.255,114
1580533676.255,114
1580533686.255,114
1580533696.255,114
1580533706.255,114
1580533716.255,114
1580533726.255,114
1580533736.255,114
1580533746.255,114
1580533756.255,114
1580533766.255,114
1580533776.255,114
1580533786.255,114
1580533796.255,114
1580533806.255,114
1580533816.255,114
1580533826.255,114
1580533836.255,114
1580533846.255,114
1580533856.255,114
1580533866.255,114
1580533876.255,114
1580533886.261,114
1580533896.255,114
1580533906.255,115
1580533916.255,115
1580533926.255,115
1580533936.255,115
1580533946.258,115
1580533956.255,115
1580533966.255,115
1580533976.255,115
1580533986.255,115
1580533996.255,115
1580534006.255,115
1580534016.255,115
1580534026.255,115
1580534036.255,115
1580534046.255,115
1580534056.255,115
1580534066.257,115
1580534076.255,115
1580534086.255,115
1580534096.255,115
1580534106.255,116
1580534116.255,116
1580534126.255,116
1580534136.260,116
1580534146.255,116
1580534156.255,116
1580534166.255,116
1580534176.255,116
1580534186.255,116
1580534196.255,116
1580534206.255,116
1580534216.255,116
1580534226.255,116
1580534236.255,116
1580534246.255,116
1580534256.255,117
