epoch,value
1580837956.390,470669
1580837966.370,470670
1580837976.369,470670
1580837986.370,470671
1580837996.369,470672
1580838006.370,470672
1580838016.370,470706
1580838026.370,470751
1580838036.369,470798
1580838046.371,470840
1580838056.370,470881
1580838066.370,470918
1580838076.371,470958
1580838086.369,470977
1580838096.369,471010
1580838106.370,471054
1580838116.369,471089
1580838126.369,471135
1580838136.372,471181
1580838146.370,471216
1580838156.370,471247
1580838166.370,471290
1580838176.369,471335
1580838186.369,471370
1580838196.369,471404
1580838206.369,471443
1580838216.369,471485
1580838226.370,471513
1580838236.369,471551
1580838246.370,471601
1580838256.371,471653
1580838266.369,471697
1580838276.370,471741
1580838286.369,471784
1580838296.370,471828
1580838306.369,471876
1580838316.369,471916
1580838326.369,471968
1580838336.370,471999
1580838346.369,472034
1580838356.370,472084
1580838366.369,472121
1580838376.370,472162
1580838386.369,472212
1580838396.370,472256
1580838406.369,472296
1580838416.370,472339
1580838426.369,472386
1580838436.370,472439
1580838446.369,472490
1580838456.369,472528
1580838466.369,472570
1580838476.369,472617
1580838486.370,472666
1580838496.369,472715
1580838506.369,472773
1580838516.370,472818
1580838526.369,472861
1580838536.369,472901
1580838546.369,472949
1580838556.370,473001
1580838566.370,473040
1580838576.369,473080
1580838586.370,473120
1580838596.369,473161
1580838606.370,473204
1580838616.369,473246
1580838626.369,473297
1580838636.369,473340
1580838646.372,473384
1580838656.370,473425
1580838666.369,473467
1580838676.369,473504
1580838686.370,473544
1580838696.369,473586
1580838706.369,473620
1580838716.369,473663
1580838726.369,473706
1580838736.369,473741
1580838746.371,473788
1580838756.369,473827
1580838766.371,473864
1580838776.369,473888
1580838786.370,473913
1580838796.369,473947
1580838806.370,473977
1580838816.369,474006
1580838826.369,474034
1580838836.369,474072
1580838846.370,474100
1580838856.370,474130
1580838866.369,474160
1580838876.370,474193
1580838886.369,474221
1580838896.370,474238
1580838906.370,474264
1580838916.372,474290
1580838926.370,474320
1580838936.369,474338
1580838946.369,474366
1580838956.370,474395
1580838966.369,474420
1580838976.369,474448
1580838986.369,474487
1580838996.370,474523
1580839006.370,474550
1580839016.369,474577
1580839026.369,474606
1580839036.369,474649
1580839046.369,474685
1580839056.369,474723
1580839066.369,474761
1580839076.371,474793
1580839086.369,474828
1580839096.369,474867
1580839106.370,474913
1580839116.372,474957
1580839126.369,474987
1580839136.369,475026
1580839146.370,475071
1580839156.369,475114
1580839166.369,475152
1580839176.369,475186
1580839186.370,475224
1580839196.370,475262
1580839206.369,475292
1580839216.371,475328
1580839226.371,475369
1580839236.369,475408
1580839246.370,475438
1580839256.369,475465
1580839266.370,475494
1580839276.370,475524
1580839286.370,475558
1580839296.370,475597
1580839306.369,475630
1580839316.370,475660
1580839326.369,475695
1580839336.369,475731
1580839346.372,475770
1580839356.370,475807
1580839366.369,475840
1580839376.372,475874
1580839386.371,475911
1580839396.369,475949
1580839406.369,475985
1580839416.369,476030
1580839426.369,476077
1580839436.372,476109
1580839446.370,476141
1580839456.369,476174
1580839466.370,476212
1580839476.369,476248
1580839486.370,476278
1580839496.370,476315
1580839506.371,476349
1580839516.370,476382
1580839526.369,476424
1580839536.370,476454
1580839546.369,476494
1580839556.369,476529
1580839566.369,476563
1580839576.369,476594
1580839586.369,476635
1580839596.370,476665
1580839606.370,476696
1580839616.369,476724
1580839626.370,476752
1580839636.370,476790
1580839646.369,476818
1580839656.369,476858
1580839666.369,476894
1580839676.369,476927
1580839686.371,476951
1580839696.371,476984
1580839706.371,477009
1580839716.370,477045
1580839726.370,477083
1580839736.369,477108
1580839746.369,477142
1580839756.371,477172
1580839766.369,477203
1580839776.370,477250
1580839786.372,477285
1580839796.369,477320
1580839806.372,477356
1580839816.371,477392
1580839826.370,477427
1580839836.369,477462
1580839846.370,477494
1580839856.370,477523
1580839866.370,477564
1580839876.371,477594
1580839886.370,477626
1580839896.369,477671
1580839906.370,477694
1580839916.370,477730
1580839926.369,477771
1580839936.371,477804
1580839946.373,477837
1580839956.370,477859
1580839966.369,477890
1580839976.369,477923
1580839986.370,477961
1580839996.371,478000
1580840006.370,478034
1580840016.369,478077
1580840026.369,478116
1580840036.370,478145
1580840046.369,478180
1580840056.369,478220
1580840066.369,478243
1580840076.370,478263
1580840086.369,478294
1580840096.370,478308
1580840106.370,478345
1580840116.369,478379
1580840126.369,478401
1580840136.369,478428
1580840146.369,478448
1580840156.370,478472
1580840166.370,478511
1580840176.371,478549
1580840186.370,478576
1580840196.372,478607
1580840206.369,478641
1580840216.370,478681
1580840226.370,478710
1580840236.370,478742
1580840246.370,478778
1580840256.369,478814
1580840266.369,478852
1580840276.369,478886
1580840286.369,478922
1580840296.370,478970
1580840306.370,479010
1580840316.369,479058
1580840326.369,479096
1580840336.372,479126
1580840346.369,479157
1580840356.369,479200
1580840366.370,479243
1580840376.371,479290
1580840386.369,479321
1580840396.369,479364
1580840406.371,479402
1580840416.370,479434
1580840426.369,479472
1580840436.369,479504
1580840446.369,479545
1580840456.369,479593
1580840466.369,479621
1580840476.369,479654
1580840486.371,479685
1580840496.371,479722
