epoch,value
1580483466.853,0
1580483476.853,0
1580483486.853,0
1580483496.853,13
1580483506.853,19
1580483516.853,29
1580483526.853,31
1580483536.853,39
1580483546.853,40
1580483556.853,42
1580483566.853,43
1580483576.853,44
1580483586.853,45
1580483596.853,50
1580483606.853,58
1580483616.853,62
1580483626.853,77
1580483636.853,84
1580483646.853,94
1580483656.853,105
1580483666.853,107
1580483676.853,108
1580483686.853,109
1580483696.853,113
1580483706.860,114
1580483716.853,121
1580483726.853,135
1580483736.853,139
1580483746.853,140
1580483756.853,141
1580483766.853,145
1580483776.853,146
1580483786.853,151
1580483796.853,151
1580483806.853,151
1580483816.853,151
1580483826.853,151
1580483836.853,151
1580483846.853,151
1580483856.853,151
1580483866.853,151
1580483876.853,151
1580483886.853,151
1580483896.853,151
1580483906.853,151
1580483916.853,151
1580483926.853,151
1580483936.855,151
1580483946.853,151
1580483956.853,151
1580483966.853,151
1580483976.853,152
1580483986.859,152
1580483996.853,152
1580484006.853,152
1580484016.853,152
1580484026.853,152
1580484036.853,152
1580484046.853,152
1580484056.853,152
1580484066.853,152
1580484076.853,152
1580484086.853,152
1580484096.853,152
1580484106.853,152
1580484116.857,152
1580484126.853,152
1580484136.853,152
1580484146.853,152
1580484156.853,152
1580484166.853,152
1580484176.853,152
1580484186.853,152
1580484196.853,152
1580484206.853,152
1580484216.853,152
1580484226.853,152
1580484236.853,152
1580484246.853,152
1580484256.853,152
1580484266.853,152
1580484276.853,152
1580484286.853,152
1580484296.853,152
1580484306.853,152
1580484316.853,152
1580484326.853,152
1580484336.853,152
1580484346.853,152
1580484356.853,152
1580484366.853,152
1580484376.853,152
1580484386.855,152
1580484396.853,152
1580484406.853,152
1580484416.853,152
1580484426.853,152
1580484436.853,152
1580484446.853,152
1580484456.853,153
1580484466.853,153
1580484476.853,153
1580484486.853,153
1580484496.853,153
1580484506.853,153
1580484516.853,153
1580484526.853,153
1580484536.853,153
1580484546.853,153
1580484556.853,153
1580484566.853,153
1580484576.853,153
1580484586.853,153
1580484596.853,153
1580484606.853,153
1580484616.853,153
1580484626.853,153
1580484636.853,153
1580484646.853,153
1580484656.853,153
1580484666.853,153
1580484676.853,153
1580484686.853,153
1580484696.853,153
1580484706.853,153
1580484716.856,153
1580484726.853,153
1580484736.853,153
1580484746.853,153
1580484756.853,153
1580484766.853,153
1580484776.853,153
1580484786.853,153
1580484796.853,153
1580484806.853,153
1580484816.853,153
1580484826.853,153
1580484836.853,153
1580484846.853,153
1580484856.853,153
1580484866.853,153
1580484876.853,153
1580484886.853,153
1580484896.857,153
1580484906.853,153
1580484916.853,153
1580484926.853,153
1580484936.853,153
1580484946.853,153
1580484956.853,153
1580484966.853,153
1580484976.853,153
1580484986.853,153
1580484996.853,154
