epoch,value
1580552515.758,0
1580552525.758,0
1580552535.758,0
1580552555.758,0
1580552565.758,0
1580552575.758,0
1580552585.758,0
1580552595.758,0
1580552605.758,0
1580552615.758,0
1580552625.758,0
1580552635.758,0
1580552645.758,0
1580552655.758,0
1580552665.758,0
1580552675.758,0
1580552685.758,0
1580552695.758,0
1580552705.758,0
1580552715.758,0
1580552725.758,0
1580552735.758,0
1580552745.758,0
1580552755.758,0
1580552765.758,0
1580552775.758,0
1580552785.758,0
1580552795.758,0
1580552805.758,0
1580552815.758,0
1580552825.758,0
1580552835.758,0
1580552845.758,0
1580552855.758,0
1580552865.758,0
1580552875.758,0
1580552885.758,0
1580552895.758,0
1580552905.758,0
1580552915.758,0
1580552925.758,0
1580552935.758,0
1580552945.758,0
1580552955.758,0
1580552965.758,0
1580552975.758,0
1580552985.758,0
1580552995.758,0
1580553005.758,0
1580553015.758,0
1580553025.758,0
1580553035.758,0
1580553045.758,0
1580553055.758,0
1580553065.758,1
1580553075.758,1
1580553085.758,1
1580553095.758,1
1580553105.758,1
1580553115.758,1
1580553125.758,1
1580553135.758,1
1580553145.758,1
1580553155.765,1
1580553165.758,1
1580553175.758,1
1580553185.758,1
1580553195.758,1
1580553205.758,1
1580553215.758,1
1580553225.758,1
1580553235.758,1
1580553245.758,1
1580553255.758,1
1580553265.758,1
1580553275.758,1
1580553285.758,1
1580553295.758,1
1580553305.758,1
1580553315.758,1
1580553325.758,1
1580553335.758,1
1580553345.758,1
1580553355.758,1
1580553365.758,1
1580553375.758,1
1580553385.758,1
1580553395.758,1
1580553405.758,1
1580553415.758,1
1580553425.758,1
1580553435.758,1
1580553445.758,1
1580553455.758,1
1580553465.758,1
1580553475.758,1
1580553485.758,1
1580553495.758,1
1580553505.758,2
1580553515.758,2
1580553525.758,2
1580553535.758,2
1580553545.758,2
1580553555.758,2
1580553565.758,2
1580553575.758,2
1580553585.758,2
1580553595.758,2
1580553605.758,2
1580553615.758,2
1580553625.758,2
1580553635.758,2
1580553645.758,2
1580553655.758,2
1580553665.758,2
1580553675.758,2
1580553685.758,2
1580553695.758,2
1580553705.758,2
1580553715.758,2
1580553725.758,2
1580553735.758,2
1580553745.758,2
1580553755.758,2
1580553765.758,2
1580553775.758,2
1580553785.758,2
1580553795.758,2
1580553805.758,2
1580553815.758,2
1580553825.758,2
1580553835.758,2
1580553845.758,2
1580553855.758,2
1580553865.758,2
1580553875.758,2
1580553885.758,2
1580553895.758,2
1580553905.758,2
1580553915.758,2
1580553925.758,2
1580553935.758,2
1580553945.758,2
1580553955.758,2
1580553965.758,2
1580553975.758,3
1580553985.758,3
1580553995.758,3
1580554005.758,3
1580554015.758,3
1580554025.758,3
1580554035.758,3
1580554045.758,3
1580554055.758,3
1580554065.758,3
1580554075.758,3
1580554085.758,3
1580554095.758,3
1580554105.758,3
1580554115.758,3
1580554125.758,3
1580554135.758,3
1580554145.758,3
1580554155.758,3
1580554165.758,3
1580554175.758,3
1580554185.758,3
1580554195.758,3
1580554205.758,3
1580554215.758,3
1580554225.758,3
1580554235.758,3
1580554245.758,3
1580554255.758,3
1580554265.758,3
1580554275.758,3
1580554285.758,3
1580554295.758,3
1580554305.758,3
1580554315.758,3
1580554325.758,3
1580554335.758,3
1580554345.758,3
1580554355.758,3
1580554365.758,3
1580554375.758,3
1580554385.758,3
1580554395.758,3
1580554405.758,3
1580554415.758,3
1580554425.758,3
1580554435.758,3
1580554445.758,3
1580554465.758,3
1580554475.758,3
1580554485.758,3
1580554495.758,3
1580554505.758,4
1580554515.758,4
1580554525.758,4
1580554535.758,4
1580554545.758,4
1580554555.758,4
1580554565.758,4
1580554575.758,4
1580554585.765,4
1580554595.758,4
1580554605.758,4
1580554615.758,4
1580554625.758,4
1580554635.758,4
1580554645.758,4
1580554655.758,4
1580554665.758,4
1580554675.758,4
1580554685.758,4
1580554695.758,4
1580554705.758,4
1580554715.758,4
1580554725.758,4
1580554735.758,4
1580554745.758,4
1580554755.758,4
1580554765.758,4
1580554775.758,4
1580554785.758,4
1580554795.758,4
1580554805.758,4
1580554815.758,4
1580554825.758,4
1580554835.758,4
1580554845.758,4
1580554855.758,4
1580554865.758,4
1580554875.758,4
1580554885.758,5
1580554895.758,5
1580554905.758,5
1580554915.758,5
1580554925.758,5
1580554935.758,5
1580554945.758,5
1580554955.758,5
1580554965.758,5
1580554975.758,5
1580554985.758,5
1580554995.758,5
1580555005.758,5
1580555015.758,5
1580555025.758,5
1580555035.758,5
1580555045.758,5
1580555055.758,5
1580555065.758,5
1580555075.758,5
1580555085.758,5
1580555095.758,5
1580555105.758,5
1580555115.758,5
1580555125.758,5
1580555135.758,5
1580555145.758,5
1580555155.758,5
1580555165.758,5
1580555175.758,5
1580555185.758,5
1580555195.758,5
1580555205.758,5
1580555215.758,5
1580555225.758,5
1580555235.758,5
1580555245.758,5
1580555255.758,5
1580555265.758,5
1580555275.758,5
1580555285.758,6
1580555295.758,6
1580555305.758,6
1580555315.758,6
1580555325.758,6
1580555335.758,6
1580555345.758,6
1580555355.758,6
1580555365.758,6
1580555375.758,6
1580555385.758,6
1580555395.764,6
1580555405.758,6
1580555415.758,6
1580555425.758,6
1580555435.758,6
1580555445.758,6
1580555455.758,6
1580555465.758,6
1580555475.758,6
1580555485.758,6
1580555495.758,6
1580555505.758,6
1580555515.758,6
1580555525.758,6
1580555535.758,6
1580555545.758,6
1580555555.758,6
1580555565.758,6
1580555575.758,6
1580555585.758,7
1580555595.758,7
1580555605.758,7
1580555615.758,7
1580555625.758,7
1580555635.758,7
1580555645.758,7
1580555655.758,7
1580555665.758,7
1580555675.759,7
1580555685.758,7
1580555695.758,7
1580555705.758,7
1580555715.758,7
1580555725.758,7
1580555735.761,7
1580555745.758,7
1580555755.758,7
1580555765.758,7
1580555775.758,7
1580555785.758,7
1580555795.758,7
1580555805.765,7
1580555815.765,7
1580555825.758,7
1580555835.758,7
1580555845.758,7
1580555855.758,7
1580555865.758,7
1580555875.758,7
1580555885.758,7
1580555905.758,7
1580555915.758,8
1580555925.758,8
1580555935.758,8
1580555945.758,8
1580555955.758,8
1580555965.758,8
1580555975.758,8
1580555985.758,8
1580555995.758,8
1580556005.758,8
1580556015.758,8
1580556025.758,8
1580556035.758,8
1580556045.758,8
1580556055.758,8
1580556065.758,8
1580556075.758,8
1580556085.758,8
1580556095.758,8
1580556105.758,8
1580556115.758,8
1580556125.758,8
1580556135.758,8
1580556145.758,8
1580556155.758,8
1580556165.758,8
1580556175.758,8
1580556185.758,8
1580556195.758,8
1580556205.758,8
1580556215.758,8
1580556225.758,8
1580556235.758,8
1580556245.758,8
1580556255.758,8
1580556265.758,8
1580556275.758,8
1580556285.758,8
1580556295.758,8
1580556305.758,8
1580556315.758,8
1580556325.758,8
1580556335.758,8
1580556345.758,8
1580556355.758,8
1580556365.758,8
1580556375.758,8
1580556385.758,8
1580556395.758,8
1580556405.758,8
1580556415.758,8
1580556425.758,8
1580556435.758,8
1580556445.758,8
1580556455.758,8
1580556465.758,8
1580556475.758,8
1580556485.758,8
1580556495.758,8
1580556505.758,8
1580556515.758,8
1580556525.758,8
1580556535.758,8
1580556545.758,8
1580556555.758,8
1580556565.758,8
1580556575.758,8
1580556585.758,8
1580556595.758,8
1580556605.758,8
1580556615.758,9
1580556625.758,9
1580556635.758,9
1580556645.758,9
1580556655.758,9
1580556665.758,9
1580556675.758,9
1580556685.758,9
1580556695.758,9
1580556705.758,9
1580556715.758,9
1580556725.758,9
1580556735.758,9
1580556745.758,9
1580556755.758,9
1580556765.758,9
1580556775.758,9
1580556785.758,9
1580556795.764,9
1580556805.758,9
1580556815.758,9
1580556825.758,9
1580556835.758,9
1580556845.758,9
1580556855.758,9
1580556865.758,9
1580556875.758,9
1580556885.758,9
1580556895.758,9
1580556905.758,9
1580556915.758,9
1580556925.758,9
1580556935.758,9
1580556945.758,9
1580556955.758,9
1580556965.758,9
1580556975.758,9
1580556985.758,9
1580556995.758,9
1580557005.758,9
1580557015.758,9
1580557025.758,9
1580557035.758,9
1580557045.758,9
1580557055.758,9
1580557065.758,9
1580557075.758,9
1580557085.758,10
1580557095.758,10
1580557105.758,10
1580557115.758,10
1580557125.758,10
1580557135.758,10
1580557145.758,10
1580557155.758,10
1580557165.758,10
1580557175.758,10
1580557185.758,10
1580557195.758,10
1580557205.758,10
1580557215.758,10
1580557225.758,10
1580557235.758,10
1580557245.758,10
1580557255.758,10
1580557265.758,10
1580557275.758,10
1580557285.758,10
1580557295.758,10
1580557305.758,10
1580557315.758,10
1580557325.758,10
1580557335.758,10
1580557345.758,10
1580557355.758,10
1580557365.758,10
1580557375.758,10
1580557385.758,11
1580557395.758,11
1580557405.758,11
1580557415.758,11
1580557425.758,11
1580557435.758,11
1580557445.758,11
1580557455.758,11
1580557465.758,11
1580557475.758,11
1580557485.758,11
1580557495.758,11
1580557505.758,11
1580557515.758,11
1580557525.758,11
1580557535.758,11
1580557545.758,11
1580557555.758,11
1580557565.758,11
1580557575.758,11
1580557585.758,11
1580557595.758,11
1580557605.758,11
1580557615.758,11
1580557625.758,11
1580557635.758,11
1580557645.758,11
1580557655.758,11
1580557665.758,11
1580557675.758,11
1580557685.758,11
1580557695.758,11
1580557705.758,11
1580557715.758,11
1580557725.758,11
1580557735.758,11
1580557745.758,11
1580557755.758,11
1580557765.758,11
1580557775.758,11
1580557785.758,11
1580557795.758,11
1580557805.758,12
1580557815.758,12
1580557825.758,12
1580557835.758,12
1580557845.758,12
1580557855.758,12
1580557865.758,12
1580557875.758,12
1580557885.758,12
1580557895.758,12
1580557905.758,12
1580557915.758,12
1580557925.758,12
1580557935.758,12
1580557945.758,12
1580557955.758,12
1580557965.758,12
1580557975.767,12
1580557985.758,12
1580557995.758,12
1580558005.758,12
1580558015.758,12
1580558025.758,12
1580558035.759,12
1580558055.758,12
1580558065.758,12
1580558075.758,12
1580558085.758,12
1580558095.765,12
1580558105.758,12
1580558115.758,12
1580558125.758,12
1580558135.758,12
1580558145.758,12
1580558155.758,12
1580558165.758,12
1580558175.758,12
1580558185.758,12
1580558195.758,12
1580558205.758,12
1580558215.758,12
1580558225.758,12
1580558235.758,12
1580558245.758,12
1580558255.758,12
1580558265.758,12
1580558275.758,12
1580558285.758,12
1580558295.758,12
1580558305.758,12
1580558315.758,12
1580558325.758,12
1580558335.758,12
1580558345.758,12
1580558355.758,12
1580558365.758,12
1580558385.758,13
1580558395.758,13
1580558405.758,13
1580558415.758,13
1580558435.758,13
1580558445.758,13
1580558455.758,13
1580558465.758,13
1580558475.758,13
1580558485.758,13
1580558495.758,13
1580558505.758,13
1580558515.758,13
1580558525.758,13
1580558535.758,13
1580558545.758,13
1580558555.758,13
1580558565.758,13
1580558575.758,13
1580558585.758,13
1580558595.758,13
1580558605.758,13
1580558615.758,13
1580558625.758,13
1580558635.758,13
1580558645.758,13
1580558655.758,13
1580558665.758,13
1580558675.758,13
1580558685.758,13
1580558695.758,13
1580558705.758,13
1580558715.758,13
1580558725.758,13
1580558735.758,13
1580558745.758,13
1580558755.758,13
1580558765.758,13
1580558775.758,13
1580558785.758,13
1580558795.758,13
1580558805.758,13
1580558815.758,13
1580558825.758,13
1580558835.758,13
1580558845.758,13
1580558855.758,13
1580558865.758,13
1580558875.758,13
1580558885.758,13
1580558895.758,13
1580558905.758,13
1580558915.758,13
1580558925.758,13
1580558935.758,13
1580558945.758,13
1580558955.758,13
1580558965.758,13
1580558975.758,13
1580558985.758,13
1580558995.758,13
1580559005.758,13
1580559015.758,13
1580559025.758,13
1580559035.758,13
1580559045.758,13
1580559055.758,13
1580559065.758,13
1580559075.758,14
1580559085.758,14
1580559095.758,14
1580559105.758,14
1580559115.758,14
1580559125.758,14
1580559135.758,14
1580559155.758,14
1580559165.758,14
1580559175.758,14
1580559185.758,14
1580559195.758,14
1580559205.758,14
1580559215.758,14
1580559225.758,14
1580559235.758,14
1580559245.758,14
1580559255.758,14
1580559265.758,14
1580559275.758,14
1580559285.758,14
1580559295.758,14
1580559305.758,14
1580559315.758,14
1580559325.758,14
1580559335.758,14
1580559345.758,14
1580559355.758,14
1580559365.758,14
1580559375.758,14
1580559385.758,14
1580559395.758,14
1580559405.758,14
1580559415.758,14
1580559425.758,14
1580559435.758,14
1580559445.758,14
1580559455.758,14
1580559465.758,14
1580559475.758,14
1580559485.758,14
1580559495.758,14
1580559505.758,15
1580559515.758,15
1580559525.758,15
1580559535.758,15
1580559545.758,15
1580559555.758,15
1580559565.758,15
1580559575.758,15
1580559585.758,15
1580559595.758,15
1580559605.758,15
1580559615.758,15
1580559625.758,15
1580559635.758,15
1580559645.758,15
1580559655.758,15
1580559665.758,15
1580559675.758,15
1580559685.758,15
1580559695.758,15
1580559705.758,15
1580559715.758,15
1580559725.758,15
1580559735.758,15
1580559745.758,15
1580559755.758,15
1580559765.758,15
1580559775.758,15
1580559785.758,15
1580559795.758,15
1580559805.765,15
1580559815.758,15
1580559825.758,15
1580559835.758,15
1580559845.758,15
1580559855.758,15
1580559865.758,15
1580559875.758,16
1580559885.758,16
1580559895.758,16
1580559905.758,16
1580559915.758,16
1580559925.758,16
1580559935.758,16
1580559945.758,16
1580559955.758,16
1580559965.758,16
1580559975.758,16
1580559985.758,16
1580559995.758,16
1580560005.758,16
1580560015.760,16
1580560025.758,16
1580560035.758,16
1580560045.758,16
1580560055.758,16
1580560065.758,16
1580560075.758,16
1580560085.758,16
1580560095.758,16
1580560105.758,16
1580560115.758,16
1580560125.758,16
1580560135.758,16
1580560145.758,16
1580560155.758,16
1580560165.758,16
1580560175.758,16
1580560185.758,16
1580560195.758,16
1580560205.758,16
1580560215.758,16
1580560225.758,16
1580560235.758,16
1580560245.758,16
1580560255.758,16
1580560265.767,16
1580560275.758,16
1580560285.758,16
1580560295.758,16
1580560305.758,16
1580560315.758,16
1580560325.758,16
1580560335.758,16
1580560345.758,16
1580560355.758,16
1580560365.758,16
1580560375.758,16
1580560385.758,16
1580560395.758,16
1580560405.758,16
1580560415.758,16
1580560425.758,16
1580560435.758,16
1580560445.758,16
1580560455.758,16
1580560465.758,16
1580560475.765,16
1580560485.758,16
1580560495.758,16
1580560505.758,16
1580560515.758,16
1580560525.758,16
1580560535.758,16
1580560545.758,16
1580560555.758,17
1580560565.758,17
1580560575.758,17
1580560585.758,17
1580560595.758,17
1580560605.758,17
1580560615.758,17
1580560625.758,17
1580560635.758,17
1580560645.758,17
