epoch,value
1580471092.191,0
1580471102.191,0
1580471112.191,0
1580471122.191,0
1580471132.191,3
1580471142.191,5
1580471152.191,6
1580471162.191,6
1580471172.191,6
1580471182.191,6
1580471192.191,6
1580471202.191,7
1580471212.191,7
1580471222.191,7
1580471232.191,7
1580471242.191,8
1580471252.191,8
1580471262.191,8
1580471272.191,8
1580471282.191,9
1580471292.191,9
1580471302.191,10
1580471312.191,11
1580471322.191,13
1580471332.191,13
1580471342.191,13
1580471352.191,14
1580471362.191,14
1580471372.191,14
1580471382.191,14
1580471392.191,14
1580471402.191,14
1580471412.191,22
1580471422.191,22
1580471432.191,22
1580471442.191,22
1580471452.191,22
1580471462.191,22
1580471472.191,23
1580471482.192,23
1580471492.191,23
1580471502.191,23
1580471512.191,23
1580471522.191,23
1580471532.197,23
1580471542.191,23
1580471552.191,23
1580471562.191,23
1580471572.193,23
1580471582.191,23
1580471592.191,23
1580471602.191,23
1580471612.191,23
1580471622.191,23
1580471632.191,23
1580471642.191,23
1580471652.191,23
1580471662.191,23
1580471672.191,23
1580471682.191,23
1580471692.191,23
1580471702.191,23
1580471712.191,23
1580471722.191,23
1580471732.191,23
1580471742.191,24
1580471752.191,24
1580471762.191,24
1580471772.191,24
1580471782.191,24
1580471792.191,24
1580471802.191,24
1580471812.191,24
1580471822.191,24
1580471832.191,24
1580471842.191,24
1580471852.193,24
1580471862.191,25
1580471872.193,25
1580471882.191,25
1580471892.191,25
1580471902.191,25
1580471912.191,25
1580471922.191,25
1580471932.191,25
1580471942.191,25
1580471952.191,25
1580471962.191,25
1580471972.191,25
1580471982.191,25
1580471992.191,25
1580472002.191,25
1580472012.191,25
1580472022.191,25
1580472032.191,26
1580472042.191,26
1580472052.191,26
1580472062.191,26
1580472072.191,26
1580472082.191,26
1580472092.191,26
1580472102.191,26
1580472112.191,26
1580472122.191,26
1580472132.191,26
1580472142.191,26
1580472152.191,26
1580472162.192,26
1580472172.191,26
1580472182.191,26
1580472192.191,26
1580472202.191,26
1580472212.191,26
1580472222.191,26
1580472232.191,26
1580472242.191,26
1580472252.191,26
1580472262.191,26
1580472272.191,26
1580472282.191,26
1580472292.191,26
1580472302.191,26
1580472312.191,26
1580472322.191,26
1580472332.191,26
1580472342.191,26
1580472352.191,26
1580472362.193,26
1580472372.191,26
1580472382.191,26
1580472392.191,26
1580472402.191,26
1580472412.191,26
1580472422.191,27
1580472432.191,27
1580472442.191,27
1580472452.191,27
1580472462.191,27
1580472472.191,27
1580472482.191,27
1580472492.191,27
1580472502.191,27
1580472512.191,27
1580472522.191,27
1580472532.191,27
1580472542.191,27
1580472552.191,27
1580472562.191,27
1580472572.191,27
1580472582.191,27
1580472592.191,27
1580472602.191,27
1580472612.191,27
1580472622.191,27
