epoch,value
1580215404.260,39858
1580215414.243,39858
1580215424.242,39858
1580215434.242,39858
1580215444.242,39858
1580215454.242,39858
1580215464.242,39858
1580215474.242,39858
1580215484.242,39858
1580215494.242,39858
1580215504.242,39858
1580215514.242,39858
1580215524.242,39858
1580215534.242,39859
1580215544.242,39859
1580215554.242,39859
1580215564.242,39859
1580215574.242,39859
1580215584.242,39859
1580215594.242,39859
1580215604.243,39859
1580215614.242,39859
1580215624.242,39859
1580215634.242,39859
1580215644.244,39859
1580215654.242,39859
1580215664.242,39859
1580215674.243,39859
1580215684.242,39859
1580215694.242,39859
1580215704.242,39859
1580215714.242,39859
1580215724.242,39859
1580215734.242,39859
1580215744.243,39859
1580215754.242,39859
1580215764.242,39859
1580215774.242,39859
1580215784.242,39859
1580215794.242,39859
1580215804.242,39859
1580215814.246,39859
1580215824.242,39859
1580215834.243,39859
1580215844.242,39859
1580215854.243,39859
1580215864.242,39859
1580215874.244,39859
1580215884.242,39859
1580215894.244,39859
1580215904.243,39859
1580215914.242,39859
1580215924.242,39859
1580215934.242,39859
1580215944.242,39859
1580215954.242,39859
1580215964.242,39860
1580215974.242,39860
1580215984.242,39860
1580215994.242,39860
1580216004.244,39860
1580216014.242,39860
1580216024.242,39860
1580216034.242,39860
1580216044.242,39860
1580216054.242,39860
1580216064.243,39860
1580216074.242,39860
1580216084.242,39861
1580216094.242,39862
1580216104.242,39862
1580216114.242,39862
1580216124.242,39862
1580216134.242,39862
1580216144.242,39862
1580216154.242,39862
1580216164.242,39862
1580216174.242,39862
1580216184.242,39862
1580216194.242,39862
1580216204.242,39862
1580216214.242,39862
1580216224.242,39862
1580216234.242,39862
1580216244.242,39862
1580216254.243,39862
1580216264.242,39862
1580216274.242,39862
1580216284.242,39862
1580216294.242,39862
1580216304.242,39862
1580216314.242,39862
1580216324.245,39862
1580216334.243,39862
1580216344.243,39865
1580216354.242,39866
1580216364.242,39866
1580216374.243,39866
1580216384.242,39866
1580216394.242,39866
1580216404.242,39866
1580216414.243,39866
1580216424.242,39866
1580216434.243,39866
1580216444.244,39866
1580216454.243,39866
1580216464.242,39866
1580216474.242,39866
1580216484.242,39866
1580216494.242,39866
1580216504.242,39866
1580216514.242,39866
1580216524.242,39868
1580216534.242,39868
1580216544.242,39868
1580216554.242,39868
1580216564.242,39868
1580216574.242,39868
1580216584.242,39868
1580216594.242,39868
1580216604.244,39870
1580216614.242,39870
1580216624.242,39870
1580216634.242,39871
1580216644.244,39871
1580216654.244,39871
1580216664.243,39871
1580216674.242,39871
1580216684.242,39871
1580216694.242,39871
1580216704.242,39871
1580216714.242,39871
1580216724.242,39871
1580216734.242,39871
1580216744.242,39871
1580216754.242,39871
1580216764.242,39871
1580216774.242,39871
1580216784.242,39871
1580216794.242,39871
1580216804.242,39871
1580216814.242,39871
1580216824.242,39871
1580216834.242,39871
1580216844.242,39871
1580216854.243,39871
1580216864.242,39871
1580216874.242,39871
1580216884.242,39871
1580216894.243,39871
1580216904.242,39873
1580216914.242,39873
1580216924.242,39873
1580216934.242,39873
1580216944.243,39873
1580216954.242,39873
1580216964.242,39873
1580216974.242,39875
1580216984.243,39875
1580216994.242,39875
1580217004.242,39875
1580217014.244,39875
1580217024.243,39875
1580217034.244,39876
1580217044.242,39876
1580217054.243,39877
1580217064.243,39877
1580217074.242,39878
1580217084.245,39878
1580217094.244,39878
1580217104.242,39878
1580217114.242,39878
1580217124.242,39879
1580217134.242,39879
1580217144.242,39879
1580217154.242,39879
1580217164.244,39879
1580217174.242,39879
1580217184.243,39880
1580217194.242,39880
1580217204.242,39880
1580217214.242,39880
1580217224.242,39880
1580217234.242,39880
1580217244.242,39880
1580217254.242,39880
1580217264.242,39880
1580217274.242,39880
1580217284.244,39880
1580217294.244,39880
1580217304.242,39880
1580217314.242,39880
1580217324.242,39880
1580217334.242,39880
1580217344.242,39880
1580217354.245,39880
1580217364.242,39880
1580217374.242,39880
1580217384.242,39880
1580217394.242,39880
1580217404.242,39880
1580217414.242,39880
1580217424.242,39880
1580217434.244,39880
1580217444.242,39880
1580217454.243,39880
1580217464.242,39880
1580217474.242,39880
1580217484.242,39880
1580217494.242,39880
1580217504.242,39880
1580217514.243,39880
1580217524.242,39880
1580217534.242,39880
1580217544.242,39880
1580217554.243,39880
1580217564.243,39881
1580217574.242,39881
1580217584.242,39882
1580217594.243,39882
1580217604.242,39882
1580217614.242,39883
1580217624.242,39883
1580217634.242,39883
1580217644.242,39883
1580217654.242,39883
1580217664.242,39883
1580217674.245,39883
1580217684.242,39883
1580217694.242,39883
1580217704.242,39883
1580217714.242,39883
1580217724.242,39883
1580217734.243,39883
1580217744.242,39883
1580217754.242,39883
1580217764.242,39883
1580217774.243,39883
1580217784.242,39883
1580217794.243,39883
1580217804.242,39883
1580217814.242,39884
1580217824.242,39884
1580217834.242,39884
1580217844.242,39884
1580217854.242,39884
1580217864.242,39884
1580217874.242,39884
1580217884.242,39884
1580217894.242,39884
1580217904.242,39884
1580217914.242,39884
1580217924.242,39884
1580217934.242,39884
1580217944.242,39884
1580217954.242,39884
1580217964.242,39884
1580217974.245,39884
1580217984.242,39884
1580217994.242,39884
1580218004.242,39884
1580218014.242,39884
1580218024.242,39884
1580218034.242,39884
1580218044.244,39887
1580218054.242,39887
1580218064.242,39887
1580218074.244,39888
1580218084.245,39888
1580218094.242,39888
1580218104.242,39888
1580218114.242,39888
1580218124.242,39888
1580218134.245,39888
1580218144.242,39888
1580218154.242,39888
1580218164.242,39888
1580218174.242,39888
