epoch,value
1579799651.418,237244
1579799661.399,237244
1579799671.399,237245
1579799681.399,237245
1579799691.399,237247
1579799701.399,237247
1579799711.400,237247
1579799721.399,237247
1579799731.402,237249
1579799741.399,237250
1579799751.399,237250
1579799761.399,237250
1579799771.399,237252
1579799781.399,237253
1579799791.399,237254
1579799801.399,237254
1579799811.399,237254
1579799821.399,237255
1579799831.399,237255
1579799841.400,237255
1579799851.399,237256
1579799861.400,237256
1579799871.399,237257
1579799881.399,237258
1579799891.399,237258
1579799901.399,237259
1579799911.399,237259
1579799921.399,237260
1579799931.399,237261
1579799941.399,237262
1579799951.399,237262
1579799961.399,237262
1579799971.399,237263
1579799981.400,237263
1579799991.399,237264
1579800001.399,237264
1579800011.399,237264
1579800021.399,237264
1579800031.399,237265
1579800041.399,237265
1579800051.399,237265
1579800061.400,237265
1579800071.399,237266
1579800081.399,237266
1579800091.399,237266
1579800101.400,237267
1579800111.401,237268
1579800121.399,237268
1579800131.399,237270
1579800141.399,237270
1579800151.399,237270
1579800161.399,237271
1579800171.399,237271
1579800181.399,237271
1579800191.399,237272
1579800201.399,237272
1579800211.399,237274
1579800221.399,237275
1579800231.399,237276
1579800241.399,237276
1579800251.399,237277
1579800261.400,237277
1579800271.399,237277
1579800281.399,237277
1579800291.399,237278
1579800301.400,237279
1579800311.400,237280
1579800321.400,237280
1579800331.399,237280
1579800341.400,237280
1579800351.401,237280
1579800361.399,237280
1579800371.399,237281
1579800381.399,237282
1579800391.399,237282
1579800401.399,237284
1579800411.399,237284
1579800421.399,237284
1579800431.399,237285
1579800441.399,237286
1579800451.400,237286
1579800461.399,237286
1579800471.399,237287
1579800481.399,237287
1579800491.399,237290
1579800501.399,237292
1579800511.399,237293
1579800521.399,237293
1579800531.399,237295
1579800541.399,237296
1579800551.402,237296
1579800561.399,237297
1579800571.399,237299
1579800581.399,237301
1579800591.399,237302
1579800601.400,237302
1579800611.399,237304
1579800621.400,237304
1579800631.399,237304
1579800641.399,237305
1579800651.402,237306
1579800661.399,237306
1579800671.399,237306
1579800681.399,237307
1579800691.399,237307
1579800701.399,237307
1579800711.402,237308
1579800721.401,237308
1579800731.399,237309
1579800741.399,237310
1579800751.399,237310
1579800761.399,237311
1579800771.400,237312
1579800781.399,237314
1579800791.400,237315
1579800801.399,237316
1579800811.400,237316
1579800821.399,237317
1579800831.400,237318
1579800841.399,237319
1579800851.399,237319
1579800861.399,237319
1579800871.399,237322
1579800881.399,237322
1579800891.399,237322
1579800901.399,237324
1579800911.399,237325
1579800921.399,237325
1579800931.399,237326
1579800941.400,237326
1579800951.399,237326
1579800961.400,237327
1579800971.399,237328
1579800981.399,237328
1579800991.401,237329
1579801001.399,237329
1579801011.399,237329
1579801021.399,237330
1579801031.399,237330
1579801041.399,237330
1579801051.399,237330
1579801061.399,237332
1579801071.399,237333
1579801081.399,237334
1579801091.399,237334
1579801101.399,237334
1579801111.399,237335
1579801121.400,237335
1579801131.400,237336
1579801141.399,237338
1579801151.400,237338
1579801161.400,237339
1579801171.402,237340
1579801181.399,237341
1579801191.399,237341
1579801201.399,237341
1579801211.399,237342
