epoch,value
1580242492.207,0
1580242502.207,0
1580242512.208,0
1580242522.207,0
1580242532.207,0
1580242542.207,1
1580242552.207,3
1580242562.207,7
1580242572.207,16
1580242582.207,22
1580242592.207,32
1580242602.207,39
1580242622.207,40
1580242632.207,48
1580242642.208,53
1580242652.207,55
1580242662.207,56
1580242672.207,58
1580242682.207,61
1580242692.207,68
1580242702.207,74
1580242712.207,77
1580242722.207,81
1580242732.207,83
1580242742.207,84
1580242752.207,89
1580242762.207,92
1580242772.207,96
1580242782.207,98
1580242792.207,101
1580242802.207,106
1580242812.207,107
1580242822.207,107
1580242832.207,107
1580242842.207,107
1580242852.207,107
1580242862.207,107
1580242872.207,107
1580242882.207,107
1580242892.207,107
1580242902.207,107
1580242912.210,107
1580242922.207,107
1580242932.207,107
1580242942.207,107
1580242952.207,107
1580242962.207,107
1580242972.207,107
1580242982.207,107
1580242992.207,107
1580243002.207,107
1580243012.207,107
1580243022.207,107
1580243032.207,107
1580243042.207,107
1580243052.207,107
1580243062.207,107
1580243072.207,107
1580243082.207,107
1580243092.207,107
1580243102.207,107
1580243112.207,107
1580243122.207,107
1580243132.207,107
1580243142.207,107
1580243152.207,107
1580243162.207,107
1580243172.207,107
1580243182.207,107
1580243192.207,107
1580243202.207,107
1580243212.207,107
1580243222.207,107
1580243232.207,107
1580243242.207,107
1580243252.207,107
1580243262.207,107
1580243272.207,107
1580243282.207,107
1580243292.207,108
1580243302.207,108
1580243312.207,108
1580243322.207,108
1580243332.207,108
1580243342.207,108
1580243352.207,108
1580243362.207,108
1580243372.207,108
1580243382.207,108
1580243392.207,108
1580243402.207,108
1580243412.207,108
1580243422.207,108
1580243432.207,108
1580243442.207,108
1580243452.208,108
1580243462.207,108
1580243472.208,108
1580243482.207,108
1580243492.207,108
1580243502.207,108
1580243512.207,108
1580243522.208,108
1580243532.207,108
1580243542.207,108
1580243552.207,108
1580243562.207,108
1580243572.207,108
1580243582.207,108
1580243592.207,108
1580243602.209,108
1580243612.207,108
1580243622.207,108
1580243632.207,108
1580243642.208,108
1580243652.207,108
1580243662.207,108
1580243672.207,108
1580243682.207,108
1580243692.207,108
1580243702.207,108
1580243712.207,108
1580243722.207,108
1580243732.207,108
1580243742.207,108
1580243752.207,108
1580243762.207,108
1580243772.207,108
1580243782.207,108
1580243792.207,108
1580243802.207,108
1580243812.207,109
1580243822.207,109
1580243832.207,109
1580243842.207,109
1580243852.207,109
1580243862.207,109
1580243872.207,109
1580243882.207,109
1580243892.207,109
1580243902.207,109
1580243912.207,109
1580243922.207,109
1580243932.207,109
1580243942.207,109
1580243952.207,109
1580243962.207,109
1580243972.207,109
1580243982.207,109
1580243992.207,109
1580244002.207,109
1580244012.207,109
1580244022.207,109
1580244032.207,109
1580244042.207,109
1580244052.207,109
1580244062.207,109
1580244072.207,109
1580244082.207,109
1580244092.207,109
1580244102.207,109
1580244112.207,109
1580244122.207,109
1580244132.207,109
1580244142.207,109
1580244152.207,109
1580244162.207,109
1580244172.207,109
1580244182.207,109
1580244192.207,109
1580244202.207,109
1580244212.207,109
1580244222.207,109
1580244232.207,109
1580244242.207,109
1580244252.207,109
1580244262.207,109
1580244272.207,109
1580244282.207,109
1580244292.207,109
1580244302.207,110
1580244312.207,110
1580244322.207,110
1580244332.207,110
1580244342.207,110
1580244352.207,110
1580244362.207,110
1580244372.207,110
1580244382.207,110
1580244392.207,110
1580244402.207,110
1580244412.207,110
1580244422.213,110
1580244432.207,110
1580244442.207,110
1580244452.207,110
1580244462.207,110
1580244472.207,110
1580244482.207,110
1580244492.207,110
1580244502.207,110
1580244512.207,110
1580244522.207,110
1580244532.207,110
1580244542.207,110
1580244552.207,110
1580244562.207,110
1580244572.207,110
1580244582.207,110
1580244592.207,110
1580244602.207,110
1580244612.207,110
1580244622.207,110
1580244632.207,110
1580244642.207,110
1580244652.207,110
1580244662.207,110
1580244672.208,110
1580244682.207,110
1580244692.207,110
1580244702.207,110
1580244712.207,110
1580244722.207,110
1580244732.207,110
1580244742.207,110
1580244752.207,110
1580244762.207,110
1580244772.207,110
1580244782.207,110
1580244792.207,110
1580244802.207,110
1580244812.207,110
1580244822.207,110
1580244832.207,110
1580244842.207,110
1580244852.207,110
1580244862.207,110
1580244872.207,111
1580244882.207,111
1580244892.207,111
1580244902.207,111
1580244912.207,111
1580244922.207,111
1580244932.207,111
1580244942.207,111
1580244952.207,111
1580244962.207,111
1580244972.207,111
1580244982.207,111
1580244992.207,111
1580245002.207,111
1580245012.207,111
1580245022.207,111
1580245032.207,111
1580245042.207,111
1580245052.207,111
1580245062.207,111
1580245072.207,111
1580245082.209,111
1580245092.207,111
1580245102.207,111
1580245112.207,111
1580245122.207,111
1580245132.207,111
1580245142.207,111
1580245152.207,111
1580245162.207,111
1580245172.210,111
1580245182.207,111
1580245192.207,111
1580245202.207,111
1580245212.207,111
1580245222.207,111
