epoch,value
1580812795.443,9219
1580812805.430,9219
1580812815.426,9219
1580812825.426,9219
1580812835.426,9219
1580812845.427,9219
1580812855.425,9219
1580812865.425,9219
1580812875.426,9219
1580812885.425,9219
1580812895.426,9219
1580812905.425,9219
1580812915.425,9219
1580812925.425,9219
1580812935.425,9219
1580812945.426,9219
1580812955.425,9219
1580812965.426,9219
1580812975.425,9219
1580812985.425,9219
1580812995.425,9219
1580813005.425,9219
1580813015.427,9219
1580813025.425,9219
1580813035.425,9219
1580813045.425,9219
1580813055.426,9219
1580813065.427,9219
1580813075.425,9219
1580813085.425,9219
1580813095.425,9219
1580813105.425,9219
1580813115.425,9219
1580813125.426,9219
1580813135.425,9219
1580813145.425,9219
1580813155.425,9219
1580813165.425,9219
1580813175.425,9219
1580813185.425,9219
1580813195.425,9219
1580813205.425,9219
1580813215.425,9219
1580813225.425,9219
1580813235.425,9219
1580813245.425,9219
1580813255.425,9219
1580813265.428,9219
1580813275.425,9219
1580813285.429,9220
1580813295.425,9220
1580813305.427,9220
1580813315.426,9220
1580813325.425,9220
1580813335.425,9220
1580813345.425,9220
1580813355.426,9220
1580813365.426,9220
1580813375.425,9220
1580813385.426,9220
1580813395.428,9220
1580813405.425,9220
1580813415.425,9220
1580813425.425,9220
1580813435.427,9220
1580813445.425,9220
1580813455.425,9220
1580813465.425,9220
1580813475.425,9220
1580813485.425,9220
1580813495.427,9220
1580813505.425,9220
1580813515.425,9220
1580813525.425,9220
1580813535.425,9220
1580813545.428,9220
1580813555.425,9220
1580813565.425,9220
1580813575.425,9220
1580813585.425,9220
1580813595.425,9220
1580813605.427,9220
1580813615.425,9220
1580813625.426,9220
1580813635.425,9220
1580813645.426,9220
1580813655.426,9220
1580813665.426,9220
1580813675.425,9220
1580813685.425,9220
1580813695.427,9220
1580813705.425,9220
1580813715.427,9220
1580813725.425,9220
1580813735.426,9220
1580813745.426,9220
1580813755.426,9220
1580813765.425,9220
1580813775.425,9220
1580813785.425,9220
1580813795.428,9220
1580813805.425,9220
1580813815.425,9220
1580813825.425,9220
1580813835.425,9220
1580813845.425,9220
1580813855.425,9220
1580813865.425,9220
1580813875.425,9220
1580813885.425,9220
1580813895.426,9220
1580813905.426,9220
1580813915.426,9220
1580813925.427,9220
1580813935.426,9220
1580813945.425,9220
1580813955.426,9220
1580813965.427,9220
1580813975.425,9220
1580813985.426,9220
1580813995.426,9220
1580814005.425,9220
1580814015.425,9220
1580814025.425,9220
1580814035.425,9220
1580814045.425,9220
1580814055.426,9220
1580814065.425,9220
1580814075.425,9220
1580814085.425,9220
1580814095.427,9220
1580814105.426,9220
1580814115.425,9220
1580814125.425,9220
1580814135.425,9220
1580814145.427,9220
1580814155.425,9220
1580814165.425,9220
1580814175.426,9220
1580814185.425,9220
1580814195.425,9220
1580814205.425,9220
1580814215.425,9220
1580814225.426,9220
1580814235.425,9220
1580814245.425,9220
1580814255.425,9220
1580814265.425,9220
1580814275.425,9220
1580814285.430,9220
1580814295.425,9220
1580814305.426,9220
1580814315.425,9220
1580814325.425,9220
1580814335.426,9220
1580814345.425,9220
