epoch,value
1580837986.061,0
1580837996.061,0
1580838006.061,0
1580838016.061,0
1580838026.061,0
1580838036.061,2
1580838056.061,3
1580838066.061,31
1580838076.061,39
1580838086.061,51
1580838096.062,57
1580838106.062,58
1580838116.061,66
1580838126.061,76
1580838136.061,88
1580838146.061,103
1580838156.061,120
1580838166.061,134
1580838176.061,137
1580838186.061,140
1580838196.061,140
1580838206.061,140
1580838216.061,140
1580838226.061,140
1580838236.061,140
1580838246.061,140
1580838256.061,140
1580838266.061,140
1580838276.061,140
1580838286.061,140
1580838296.061,141
1580838306.061,141
1580838316.061,141
1580838326.061,141
1580838336.061,141
1580838346.061,141
1580838356.061,141
1580838366.061,141
1580838376.061,141
1580838386.064,141
1580838396.061,141
1580838406.061,141
1580838416.061,141
1580838426.061,141
1580838436.061,142
1580838446.061,142
1580838456.061,142
1580838466.061,142
1580838476.061,142
1580838486.069,142
1580838496.061,142
1580838506.061,142
1580838516.061,142
1580838526.061,142
1580838536.061,142
1580838546.061,142
1580838556.062,142
1580838566.061,142
1580838576.061,143
1580838586.061,143
1580838596.061,143
1580838606.061,143
1580838616.061,143
1580838626.061,143
1580838636.062,143
1580838646.061,143
1580838656.061,143
1580838666.061,143
1580838676.061,143
1580838686.061,143
1580838696.061,143
1580838706.061,144
1580838716.061,144
1580838726.061,144
1580838736.061,144
1580838746.061,144
1580838756.061,144
1580838766.061,144
1580838776.061,144
1580838786.061,144
1580838796.061,144
1580838806.061,144
1580838816.061,144
1580838826.061,144
1580838836.061,144
1580838846.061,145
1580838856.061,145
1580838866.061,145
1580838876.061,145
1580838886.061,145
1580838896.061,145
1580838906.061,145
1580838916.061,145
1580838926.062,145
1580838936.061,145
1580838946.061,145
1580838956.061,145
1580838966.061,145
1580838976.061,145
1580838986.061,145
1580838996.061,145
1580839006.061,145
1580839016.061,145
1580839026.061,145
1580839036.061,145
1580839046.061,145
1580839056.061,146
1580839066.061,146
1580839076.063,146
1580839086.061,146
1580839096.061,146
1580839106.061,146
1580839116.061,146
1580839126.061,146
1580839136.061,146
1580839146.061,146
1580839156.061,146
1580839166.061,146
1580839176.061,146
1580839186.061,146
1580839196.061,146
1580839206.061,147
1580839216.061,147
1580839226.061,147
1580839236.061,147
1580839246.061,147
1580839256.061,147
1580839266.061,147
1580839276.061,147
1580839286.061,147
1580839296.061,147
1580839306.061,147
1580839316.061,147
1580839326.061,147
1580839336.061,147
1580839346.061,148
1580839356.061,148
1580839366.061,148
1580839376.061,148
1580839386.061,148
1580839396.061,148
1580839406.061,148
1580839416.061,148
1580839426.061,148
1580839436.061,148
1580839446.061,148
1580839456.061,148
1580839466.061,148
1580839476.061,148
1580839486.061,148
1580839496.061,148
1580839506.061,149
1580839516.061,149
1580839526.061,149
1580839536.061,149
1580839546.061,149
1580839556.061,149
1580839566.061,149
1580839576.061,149
1580839586.061,149
1580839596.061,150
1580839606.061,150
1580839616.061,150
1580839626.061,150
1580839636.061,150
1580839646.061,150
1580839656.061,150
1580839666.061,150
1580839676.061,150
1580839686.061,150
1580839696.061,150
1580839706.061,150
1580839716.061,150
1580839726.061,150
1580839736.064,150
1580839746.061,150
1580839756.061,151
1580839766.061,151
1580839776.061,151
1580839786.061,151
1580839796.061,151
1580839806.061,151
1580839816.061,151
1580839826.061,151
1580839836.061,151
1580839846.061,151
1580839856.061,151
1580839866.061,151
1580839876.061,151
1580839886.061,151
1580839896.061,151
1580839906.061,151
1580839916.061,152
1580839926.061,152
1580839936.062,152
1580839946.061,152
1580839956.061,152
1580839966.061,152
1580839976.061,152
1580839986.061,152
1580839996.061,152
1580840006.065,152
1580840016.061,152
1580840026.061,152
1580840036.061,152
1580840046.061,152
1580840056.061,152
1580840066.061,152
1580840076.061,152
1580840086.061,152
1580840096.061,152
1580840106.061,152
1580840116.061,152
1580840126.061,152
1580840136.061,152
1580840146.061,152
1580840156.061,153
1580840166.061,153
1580840176.061,153
1580840186.061,153
1580840196.061,153
1580840206.061,153
1580840216.061,153
1580840226.061,153
1580840236.061,153
1580840246.061,153
1580840256.061,153
1580840266.067,153
1580840276.061,153
1580840286.061,153
1580840296.061,153
1580840306.061,153
1580840316.061,153
1580840326.061,153
1580840336.061,153
1580840346.061,153
1580840356.061,153
1580840366.061,153
1580840376.061,153
1580840386.061,153
1580840396.061,153
1580840406.061,153
1580840416.061,154
1580840426.061,154
1580840436.061,154
1580840446.061,154
1580840456.061,154
1580840466.061,154
1580840476.061,154
1580840486.061,154
1580840496.061,154
