epoch,value
1579888980.503,11711
1579888990.480,11711
1579889000.480,11711
1579889010.480,11711
1579889020.481,11711
1579889030.480,11711
1579889040.480,11711
1579889050.480,11711
1579889060.480,11711
1579889070.480,11711
1579889080.480,11711
1579889090.481,11711
1579889100.483,11711
1579889110.482,11711
1579889120.480,11711
1579889130.480,11711
1579889140.480,11711
1579889150.481,11711
1579889160.480,11711
1579889170.480,11711
1579889180.480,11711
1579889190.482,11711
1579889200.480,11711
1579889210.480,11711
1579889220.480,11711
1579889230.481,11711
1579889240.481,11711
1579889250.480,11711
1579889260.481,11711
1579889270.481,11711
1579889280.481,11711
1579889290.481,11711
1579889300.483,11711
1579889310.480,11711
1579889320.481,11711
1579889330.480,11711
1579889340.481,11711
1579889350.480,11711
1579889360.480,11711
1579889370.482,11711
1579889380.483,11711
1579889390.480,11711
1579889400.480,11711
1579889410.480,11711
1579889420.480,11711
1579889430.480,11711
1579889440.480,11711
1579889450.480,11711
1579889460.480,11711
1579889470.480,11711
1579889480.480,11711
1579889490.480,11711
1579889500.480,11711
1579889510.481,11711
1579889520.481,11711
1579889530.480,11711
1579889540.480,11711
1579889550.480,11711
1579889560.480,11711
1579889570.480,11711
1579889580.480,11711
1579889590.481,11711
1579889600.481,11711
1579889610.480,11711
1579889620.480,11711
1579889630.481,11711
1579889640.480,11711
1579889650.480,11711
1579889660.481,11711
1579889670.481,11711
1579889680.480,11711
1579889690.480,11711
1579889700.480,11711
1579889710.480,11711
1579889720.480,11711
1579889730.480,11711
1579889740.481,11711
1579889750.480,11711
1579889760.480,11711
1579889770.480,11711
1579889780.480,11711
1579889790.480,11711
1579889800.482,11711
1579889810.481,11711
1579889820.480,11711
1579889830.481,11711
1579889840.481,11711
1579889850.480,11711
1579889860.480,11711
1579889870.480,11711
1579889880.480,11711
1579889890.480,11711
1579889900.480,11711
1579889910.480,11711
1579889920.480,11711
1579889930.480,11711
1579889940.482,11711
1579889950.480,11711
1579889960.480,11711
1579889970.480,11711
1579889980.480,11711
1579889990.481,11711
1579890000.480,11711
1579890010.480,11711
1579890020.481,11711
1579890030.480,11712
1579890040.480,11712
1579890050.481,11712
1579890060.480,11712
1579890070.481,11712
1579890080.480,11712
1579890090.480,11712
1579890100.481,11712
1579890110.480,11712
1579890120.480,11712
1579890130.480,11712
1579890140.480,11712
1579890150.483,11712
1579890160.480,11712
1579890170.480,11712
1579890180.481,11712
1579890190.480,11712
1579890200.481,11712
1579890210.481,11712
1579890220.481,11712
1579890230.481,11712
1579890240.481,11712
1579890250.480,11712
1579890260.480,11712
1579890270.483,11712
1579890280.480,11712
1579890290.480,11712
1579890300.481,11712
1579890310.480,11712
1579890320.480,11712
1579890330.480,11712
1579890340.480,11712
1579890350.480,11712
1579890360.480,11712
1579890370.480,11712
1579890380.481,11712
1579890390.480,11712
1579890400.480,11712
1579890410.480,11712
1579890420.480,11712
1579890430.480,11712
1579890440.480,11712
1579890450.480,11712
1579890460.481,11712
1579890470.484,11712
1579890480.480,11712
1579890490.480,11712
1579890500.480,11712
1579890510.480,11712
1579890520.480,11712
1579890530.480,11713
1579890540.480,11713
1579890550.481,11713
1579890560.480,11713
1579890570.480,11713
1579890580.480,11713
1579890590.480,11713
1579890600.480,11713
1579890610.480,11713
1579890620.481,11713
1579890630.480,11713
1579890640.481,11713
1579890650.480,11713
1579890660.482,11713
1579890670.481,11713
1579890680.481,11713
1579890690.481,11713
1579890700.481,11714
1579890710.480,11714
1579890720.482,11714
1579890730.480,11714
1579890740.480,11714
1579890750.480,11714
1579890760.480,11714
1579890770.480,11714
1579890780.481,11714
1579890790.480,11714
1579890800.480,11714
1579890810.480,11714
1579890820.480,11714
1579890830.482,11714
1579890840.480,11714
1579890850.480,11714
1579890860.480,11714
1579890870.480,11714
1579890880.481,11714
1579890890.480,11714
1579890900.481,11714
1579890910.480,11714
1579890920.480,11714
1579890930.480,11714
1579890940.481,11714
1579890950.480,11714
1579890960.480,11714
1579890970.480,11714
1579890980.481,11714
1579890990.480,11714
1579891000.480,11714
1579891010.480,11714
1579891020.481,11714
1579891030.482,11714
1579891040.480,11714
1579891050.480,11714
1579891060.481,11714
1579891070.480,11714
1579891080.481,11714
1579891090.481,11714
1579891100.480,11714
1579891110.480,11714
1579891120.481,11714
1579891130.480,11714
1579891140.480,11714
1579891150.480,11714
1579891160.481,11714
1579891170.480,11714
1579891180.480,11714
1579891190.480,11714
1579891200.481,11714
1579891210.480,11714
1579891220.480,11714
1579891230.480,11714
1579891240.480,11714
1579891250.483,11714
1579891260.480,11714
1579891270.482,11714
1579891280.480,11714
1579891290.480,11714
1579891300.480,11714
1579891310.482,11714
1579891320.481,11714
1579891330.481,11714
1579891340.480,11714
1579891350.480,11714
1579891360.480,11714
1579891370.480,11714
1579891380.481,11714
1579891390.481,11714
1579891400.481,11714
1579891410.480,11714
1579891420.480,11715
1579891430.480,11715
1579891440.480,11715
1579891450.481,11715
1579891460.480,11715
1579891470.482,11715
1579891480.480,11715
1579891490.480,11715
1579891500.481,11715
1579891510.480,11715
1579891520.480,11715
1579891530.480,11715
1579891540.480,11715
1579891550.483,11715
1579891560.480,11715
1579891570.481,11715
1579891580.482,11715
1579891590.480,11715
1579891600.480,11715
1579891610.480,11715
1579891620.481,11715
1579891630.481,11715
1579891640.480,11715
1579891650.480,11715
1579891660.481,11715
1579891670.483,11715
1579891680.480,11715
1579891690.482,11715
1579891700.480,11715
1579891710.480,11715
1579891720.480,11715
1579891730.481,11715
1579891740.481,11715
