epoch,value
1579882991.949,18587
1579883001.931,18587
1579883011.930,18587
1579883021.930,18587
1579883031.930,18587
1579883041.930,18587
1579883051.930,18587
1579883061.930,18587
1579883071.930,18587
1579883081.930,18587
1579883091.930,18587
1579883101.930,18587
1579883111.931,18587
1579883121.931,18587
1579883131.931,18587
1579883141.931,18587
1579883151.930,18587
1579883161.931,18587
1579883171.930,18587
1579883181.930,18587
1579883191.932,18587
1579883201.930,18587
1579883211.930,18587
1579883221.930,18587
1579883231.930,18587
1579883241.930,18587
1579883251.930,18587
1579883261.930,18587
1579883271.930,18587
1579883281.930,18587
1579883291.930,18587
1579883301.931,18587
1579883311.930,18587
1579883321.932,18587
1579883331.930,18587
1579883341.930,18587
1579883351.930,18587
1579883361.930,18587
1579883371.930,18587
1579883381.930,18587
1579883391.930,18587
1579883401.930,18587
1579883411.930,18587
1579883421.930,18587
1579883431.930,18587
1579883441.930,18587
1579883451.930,18587
1579883461.930,18587
1579883471.932,18587
1579883481.930,18587
1579883491.930,18587
1579883501.930,18587
1579883511.932,18587
1579883521.930,18587
1579883531.930,18587
1579883541.930,18587
1579883551.930,18587
1579883561.930,18587
1579883571.930,18587
1579883581.930,18587
1579883591.930,18587
1579883601.930,18587
1579883611.930,18587
1579883621.931,18587
1579883631.930,18587
1579883641.931,18587
1579883651.930,18587
1579883661.930,18587
1579883671.931,18587
1579883681.930,18587
1579883691.931,18587
1579883701.930,18587
1579883711.932,18587
1579883721.930,18587
1579883731.930,18587
1579883741.930,18587
1579883751.930,18587
1579883761.930,18587
1579883771.930,18588
1579883781.930,18588
1579883791.933,18588
1579883801.930,18588
1579883811.930,18588
1579883821.930,18588
1579883831.930,18588
1579883841.930,18588
1579883851.931,18588
1579883861.930,18588
1579883871.931,18588
1579883881.930,18588
1579883891.930,18588
1579883901.930,18588
1579883911.930,18588
1579883921.930,18588
1579883931.931,18588
1579883941.930,18588
1579883951.930,18588
1579883961.930,18588
1579883971.931,18588
1579883981.930,18588
1579883991.930,18588
1579884001.930,18588
1579884011.931,18588
1579884021.930,18588
1579884031.930,18588
1579884041.930,18588
1579884051.932,18588
1579884061.930,18588
1579884071.931,18588
1579884081.930,18588
1579884091.930,18588
1579884101.930,18588
1579884111.930,18588
1579884121.930,18588
1579884131.930,18588
1579884141.930,18588
1579884151.930,18588
1579884161.930,18588
1579884171.930,18588
1579884181.930,18588
1579884191.930,18588
1579884201.930,18589
1579884211.930,18589
1579884221.930,18589
1579884231.930,18589
1579884241.931,18589
1579884251.930,18589
1579884261.930,18589
1579884271.931,18589
1579884281.931,18589
1579884291.931,18589
1579884301.930,18589
1579884311.930,18589
1579884321.930,18589
1579884331.930,18589
1579884341.930,18589
1579884351.930,18589
1579884361.930,18589
1579884371.930,18589
1579884381.931,18589
1579884391.930,18589
1579884401.930,18589
1579884411.930,18589
1579884421.932,18590
1579884431.931,18590
1579884441.931,18590
1579884451.931,18590
1579884461.930,18590
1579884471.930,18590
1579884481.930,18590
1579884491.930,18590
1579884501.930,18590
1579884511.930,18590
1579884521.930,18590
1579884531.930,18590
1579884541.930,18590
1579884551.932,18590
1579884561.930,18590
1579884571.930,18590
1579884581.930,18590
1579884591.930,18590
1579884601.930,18590
1579884611.930,18590
1579884621.930,18590
1579884631.933,18590
1579884641.930,18590
1579884651.930,18590
1579884661.932,18590
1579884671.930,18590
1579884681.930,18590
1579884691.931,18590
1579884701.933,18590
1579884711.930,18590
1579884721.930,18590
1579884731.930,18590
1579884741.930,18590
1579884751.930,18590
1579884761.930,18590
1579884771.930,18590
1579884781.930,18590
1579884791.930,18590
1579884801.930,18590
1579884811.931,18590
1579884821.930,18590
1579884831.930,18590
1579884841.930,18590
1579884851.930,18590
1579884861.930,18590
1579884871.930,18590
1579884881.930,18590
1579884891.930,18590
1579884901.930,18590
1579884911.930,18590
1579884921.930,18590
1579884931.930,18590
1579884941.930,18590
1579884951.930,18590
1579884961.930,18590
1579884971.930,18590
1579884981.930,18590
1579884991.931,18590
1579885001.931,18590
1579885011.930,18590
1579885021.930,18590
1579885031.931,18590
1579885041.930,18590
1579885051.930,18591
1579885061.930,18591
1579885071.931,18591
1579885081.930,18591
1579885091.930,18591
1579885101.932,18591
1579885111.930,18591
1579885121.930,18591
1579885131.930,18591
1579885141.930,18591
1579885151.930,18591
1579885161.930,18591
1579885171.930,18591
1579885181.930,18591
1579885191.930,18591
1579885201.930,18591
1579885211.930,18591
1579885221.930,18591
1579885231.930,18591
1579885241.930,18591
1579885251.930,18591
1579885261.930,18591
1579885271.930,18591
1579885281.930,18591
1579885291.933,18591
1579885301.930,18591
1579885311.931,18591
1579885321.930,18591
1579885331.930,18591
1579885341.930,18591
1579885351.931,18591
1579885361.930,18591
1579885371.930,18591
1579885381.930,18591
1579885391.930,18591
1579885401.932,18593
1579885411.930,18593
1579885421.930,18593
1579885431.930,18593
1579885441.930,18593
1579885451.930,18593
1579885461.930,18593
1579885471.930,18593
1579885481.930,18593
1579885491.930,18593
1579885501.930,18594
1579885511.930,18594
1579885521.930,18594
1579885531.930,18594
1579885541.930,18594
1579885551.933,18594
1579885561.930,18594
1579885571.930,18594
1579885581.930,18594
1579885591.930,18594
1579885601.933,18594
1579885611.932,18594
1579885621.933,18594
1579885631.930,18594
1579885641.930,18594
1579885651.930,18594
1579885661.930,18594
1579885671.930,18594
1579885681.930,18594
1579885691.930,18594
1579885701.930,18594
1579885711.930,18594
1579885721.932,18594
1579885731.930,18596
1579885741.930,18596
1579885751.931,18596
