epoch,value
1579812441.599,6070
1579812451.575,6070
1579812461.575,6070
1579812471.576,6070
1579812481.575,6070
1579812491.576,6070
1579812501.578,6070
1579812511.575,6070
1579812521.575,6070
1579812531.575,6071
1579812541.575,6071
1579812551.575,6071
1579812561.575,6071
1579812571.575,6071
1579812581.575,6071
1579812591.575,6071
1579812601.575,6071
1579812611.576,6071
1579812621.576,6071
1579812631.575,6071
1579812641.575,6071
1579812651.575,6071
1579812661.575,6071
1579812671.575,6071
1579812681.575,6071
1579812691.575,6072
1579812701.575,6072
1579812711.578,6072
1579812721.575,6072
1579812731.575,6072
1579812741.575,6072
1579812751.575,6072
1579812761.575,6072
1579812771.575,6072
1579812781.575,6072
1579812791.575,6072
1579812801.576,6072
1579812811.575,6072
1579812821.575,6072
1579812831.575,6072
1579812841.576,6072
1579812851.575,6072
1579812861.575,6072
1579812871.575,6072
1579812881.575,6072
1579812891.577,6072
1579812901.575,6072
1579812911.575,6072
1579812921.575,6072
1579812931.575,6072
1579812941.575,6072
1579812951.575,6072
1579812961.575,6072
1579812971.575,6072
1579812981.577,6072
1579812991.577,6072
1579813001.575,6072
1579813011.576,6072
1579813021.580,6072
1579813031.575,6072
1579813041.575,6072
1579813051.575,6072
1579813061.575,6072
1579813071.575,6072
1579813081.575,6072
1579813091.576,6072
1579813101.577,6072
1579813111.578,6072
1579813121.575,6072
1579813131.576,6072
1579813141.575,6072
1579813151.575,6072
1579813161.575,6072
1579813171.575,6072
1579813181.575,6072
1579813191.575,6072
1579813201.575,6072
1579813211.575,6072
1579813221.575,6072
1579813231.575,6072
1579813241.575,6072
1579813251.575,6072
1579813261.575,6072
1579813271.575,6072
1579813281.575,6072
1579813291.575,6072
1579813301.575,6072
1579813311.575,6072
1579813321.575,6072
1579813331.575,6072
1579813341.575,6072
1579813351.574,6072
1579813361.574,6072
1579813371.575,6072
1579813381.576,6072
1579813391.575,6072
1579813401.575,6072
1579813411.575,6072
1579813421.575,6072
1579813431.576,6072
1579813441.575,6072
1579813451.575,6072
1579813461.575,6072
1579813471.575,6072
1579813481.575,6072
1579813491.575,6072
1579813501.574,6072
1579813511.575,6072
1579813521.575,6072
1579813531.575,6072
1579813541.575,6073
1579813551.575,6074
1579813561.576,6074
1579813571.577,6074
1579813581.575,6074
1579813591.575,6074
1579813601.575,6074
1579813611.575,6074
1579813621.575,6074
1579813631.576,6074
1579813641.575,6074
1579813651.575,6074
1579813661.575,6074
1579813671.575,6074
1579813681.575,6074
1579813691.576,6074
1579813701.575,6074
1579813711.575,6074
1579813721.575,6074
1579813731.575,6074
1579813741.575,6074
1579813751.576,6074
1579813761.575,6074
1579813771.575,6074
1579813781.575,6074
1579813791.576,6074
1579813801.575,6074
1579813811.575,6074
1579813821.576,6074
1579813831.575,6074
1579813841.575,6074
1579813851.575,6074
1579813861.575,6074
1579813871.575,6074
1579813881.575,6074
1579813891.575,6074
1579813901.575,6074
1579813911.575,6074
1579813921.575,6074
1579813931.575,6074
1579813941.575,6074
1579813951.576,6074
1579813961.575,6074
1579813971.574,6074
1579813981.575,6074
1579813991.575,6074
1579814001.576,6074
