epoch,value
1579939974.794,259993
1579939984.774,259994
1579939994.773,259994
1579940004.773,259994
1579940014.773,259996
1579940024.773,259996
1579940034.773,260006
1579940044.773,260044
1579940054.773,260088
1579940064.776,260130
1579940074.773,260162
1579940084.773,260219
1579940094.773,260254
1579940104.773,260284
1579940114.773,260315
1579940124.774,260349
1579940134.773,260372
1579940144.773,260394
1579940154.773,260429
1579940164.774,260471
1579940174.773,260509
1579940184.773,260542
1579940194.773,260574
1579940204.773,260605
1579940214.773,260635
1579940224.773,260663
1579940234.773,260682
1579940244.773,260705
1579940254.773,260734
1579940264.773,260780
1579940274.773,260823
1579940284.773,260858
1579940294.773,260889
1579940304.773,260920
1579940314.774,260951
1579940324.773,260988
1579940334.773,261028
1579940344.777,261068
1579940354.773,261111
1579940364.773,261166
1579940374.776,261224
1579940384.775,261280
1579940394.773,261330
1579940404.773,261376
1579940414.773,261427
1579940424.773,261483
1579940434.773,261520
1579940444.774,261564
1579940454.773,261604
1579940464.773,261643
1579940474.774,261687
1579940484.775,261738
1579940494.773,261792
1579940504.773,261830
1579940514.773,261867
1579940524.773,261910
1579940534.773,261950
1579940544.773,262001
1579940554.776,262046
1579940564.773,262090
1579940574.773,262137
1579940584.773,262192
1579940594.773,262229
1579940604.773,262270
1579940614.774,262302
1579940624.773,262348
1579940634.773,262386
1579940644.773,262435
1579940654.773,262475
1579940664.774,262523
1579940674.773,262557
1579940684.775,262587
1579940694.773,262628
1579940704.773,262670
1579940714.773,262710
1579940724.773,262744
1579940734.773,262785
1579940744.773,262818
1579940754.773,262848
1579940764.773,262876
1579940774.773,262913
1579940784.773,262958
1579940794.773,263005
1579940804.773,263050
1579940814.773,263072
1579940824.773,263101
1579940834.773,263130
1579940844.773,263165
1579940854.773,263206
1579940864.774,263246
1579940874.773,263292
1579940884.775,263330
1579940894.775,263362
1579940904.774,263402
1579940914.775,263444
1579940924.773,263500
1579940934.773,263542
1579940944.773,263574
1579940954.773,263628
1579940964.773,263678
1579940974.773,263720
1579940984.773,263762
1579940994.773,263810
1579941004.773,263856
1579941014.773,263884
1579941024.773,263935
1579941034.773,263978
1579941044.773,264015
1579941054.773,264047
1579941064.773,264091
1579941074.773,264136
1579941084.773,264171
1579941094.773,264212
1579941104.774,264257
1579941114.773,264299
1579941124.777,264339
1579941134.773,264373
1579941144.773,264418
1579941154.776,264450
1579941164.773,264486
1579941174.774,264526
1579941184.773,264572
1579941194.774,264608
1579941204.773,264648
1579941214.773,264693
1579941224.773,264747
1579941234.773,264790
1579941244.773,264834
1579941254.773,264865
1579941264.773,264906
1579941274.773,264952
1579941284.773,264987
1579941294.773,265023
1579941304.773,265060
1579941314.773,265101
1579941324.773,265147
1579941334.773,265182
1579941344.774,265218
1579941354.774,265267
1579941364.773,265310
1579941374.773,265350
1579941384.773,265390
1579941394.773,265438
1579941404.773,265476
1579941414.773,265513
1579941424.773,265548
1579941434.773,265589
1579941444.773,265626
1579941454.773,265663
1579941464.773,265697
1579941474.774,265734
1579941484.773,265768
1579941494.773,265805
1579941504.775,265844
1579941514.773,265883
1579941524.773,265924
1579941534.773,265969
1579941544.773,266008
1579941554.773,266052
1579941564.773,266089
1579941574.773,266130
1579941584.773,266163
1579941594.774,266204
1579941604.774,266242
1579941614.773,266280
1579941624.773,266324
1579941634.773,266364
1579941644.773,266403
1579941654.773,266435
1579941664.773,266472
1579941674.773,266514
1579941684.773,266548
1579941694.773,266590
1579941704.773,266630
1579941714.773,266673
1579941724.773,266708
1579941734.773,266750
1579941744.773,266789
1579941754.774,266830
1579941764.773,266868
1579941774.773,266912
1579941784.773,266948
1579941794.773,266987
1579941804.773,267028
1579941814.777,267069
1579941824.774,267112
1579941834.775,267150
1579941844.773,267189
1579941854.773,267228
1579941864.774,267268
1579941874.773,267315
1579941884.773,267362
1579941894.773,267408
1579941904.773,267454
1579941914.774,267541
1579941924.773,267902
1579941934.773,267952
1579941944.773,268008
1579941954.773,268034
1579941964.774,268306
1579941974.773,268499
1579941984.773,268655
1579941994.773,268695
1579942004.773,268732
1579942014.773,268773
1579942024.773,268807
1579942034.774,268850
1579942044.773,268894
1579942054.773,268940
1579942064.773,268989
1579942074.773,269030
1579942084.773,269076
1579942094.775,269115
1579942104.773,269160
1579942114.775,269197
1579942124.773,269241
1579942134.773,269281
1579942144.773,269325
1579942154.773,269374
1579942164.773,269421
1579942174.773,269465
1579942184.773,269504
1579942194.773,269547
1579942204.775,269598
1579942214.773,269642
1579942224.773,269677
1579942234.773,269716
1579942244.773,269753
1579942254.773,269802
1579942264.773,269839
1579942274.774,269889
1579942284.773,269930
1579942294.773,269968
1579942304.773,270015
1579942314.773,270053
1579942324.773,270097
1579942334.778,270130
1579942344.773,270166
1579942354.773,270200
1579942364.773,270238
1579942374.773,270274
1579942384.773,270315
1579942394.773,270353
1579942404.773,270398
1579942414.773,270441
1579942424.773,270488
1579942434.773,270538
1579942444.773,270589
1579942454.773,270625
1579942464.773,270654
1579942474.776,270655
1579942484.773,270656
1579942494.773,270656
1579942504.773,270656
1579942514.773,270656
1579942524.773,270656
1579942534.773,270656
1579942544.773,270657
1579942554.773,270657
1579942564.773,270659
1579942574.773,270662
1579942584.773,270662
1579942594.773,270665
1579942604.773,270666
1579942614.773,270666
