epoch,value
1580611677.174,0
1580611687.174,0
1580611697.174,0
1580611707.174,0
1580611717.174,0
1580611727.174,0
1580611737.174,0
1580611747.174,0
1580611757.174,0
1580611767.174,0
1580611777.174,0
1580611787.174,0
1580611797.174,0
1580611807.174,0
1580611817.174,0
1580611827.174,0
1580611837.174,1
1580611847.174,1
1580611857.174,1
1580611867.174,1
1580611877.174,1
1580611887.174,1
1580611897.174,1
1580611907.174,1
1580611917.174,1
1580611937.174,1
1580611947.174,1
1580611957.174,1
1580611967.174,1
1580611977.174,1
1580611987.174,1
1580611997.174,1
1580612007.174,1
1580612017.174,1
1580612027.174,1
1580612037.174,1
1580612047.174,1
1580612057.174,1
1580612067.174,2
1580612077.174,2
1580612087.174,2
1580612097.174,2
1580612107.174,2
1580612117.174,2
1580612127.174,2
1580612137.174,2
1580612147.174,2
1580612157.174,2
1580612167.174,2
1580612177.174,2
1580612187.174,2
1580612197.174,2
1580612207.174,2
1580612217.174,2
1580612227.174,2
1580612237.174,2
1580612247.174,2
1580612257.174,2
1580612267.174,2
1580612277.174,2
1580612287.174,2
1580612297.174,3
1580612307.174,3
1580612317.174,3
1580612327.179,3
1580612337.174,3
1580612347.174,3
1580612357.174,3
1580612367.174,3
1580612377.174,3
1580612387.174,3
1580612397.174,3
1580612407.174,3
1580612417.174,3
1580612427.174,3
1580612437.174,3
1580612447.175,3
1580612457.174,3
1580612467.174,3
1580612477.174,3
1580612487.179,3
1580612497.174,3
1580612507.174,3
1580612517.174,3
1580612527.174,3
1580612537.174,3
1580612547.174,3
1580612557.174,3
1580612567.174,4
1580612577.174,4
1580612587.174,4
1580612597.174,4
1580612607.174,4
1580612617.174,4
1580612627.174,4
1580612637.174,4
1580612647.174,4
1580612657.174,4
1580612667.174,4
1580612677.174,4
1580612687.174,4
1580612697.174,4
1580612707.174,4
1580612717.174,4
1580612727.174,4
1580612737.174,4
1580612747.174,4
1580612757.174,4
1580612767.174,4
1580612777.174,4
1580612787.174,4
1580612797.174,4
1580612807.174,4
1580612817.174,5
1580612827.174,5
1580612837.174,5
1580612847.174,5
1580612857.174,5
1580612867.174,5
1580612877.174,5
1580612887.174,5
1580612897.174,5
1580612907.174,5
1580612917.174,5
1580612927.174,5
1580612937.174,5
1580612947.176,5
1580612957.174,5
1580612967.174,5
1580612977.174,5
1580612987.174,5
1580612997.174,5
1580613007.174,5
1580613017.174,5
1580613027.174,5
1580613047.174,6
1580613057.174,6
1580613067.174,6
1580613077.174,6
1580613087.174,6
1580613097.174,6
1580613107.174,6
1580613117.174,6
1580613127.174,6
1580613137.174,6
1580613147.174,6
1580613157.174,6
1580613167.174,6
1580613177.174,6
1580613187.174,6
1580613197.174,6
1580613207.174,7
1580613217.174,7
1580613227.174,7
1580613237.174,7
1580613247.174,7
1580613257.174,7
1580613267.174,7
1580613277.174,7
1580613287.174,7
1580613297.174,7
1580613307.174,7
1580613317.174,7
1580613327.174,7
1580613337.174,7
1580613347.174,7
1580613357.174,7
1580613367.174,7
1580613377.174,7
1580613387.174,7
1580613397.174,7
1580613407.174,7
1580613417.174,7
1580613427.174,7
1580613437.174,7
1580613447.174,8
1580613457.179,8
1580613467.174,8
1580613477.174,8
1580613487.174,8
1580613497.174,8
1580613507.174,8
1580613517.174,8
1580613527.174,8
1580613537.174,8
1580613547.174,8
1580613557.174,8
1580613567.174,8
1580613577.174,8
1580613587.174,8
1580613597.174,8
1580613607.174,8
1580613617.174,8
1580613627.174,8
1580613637.174,8
1580613647.174,8
1580613657.174,8
1580613667.174,8
1580613677.174,8
1580613687.174,8
1580613697.174,9
1580613707.174,9
1580613717.174,9
1580613727.174,9
1580613747.174,9
1580613757.174,9
1580613767.174,9
1580613777.174,9
1580613787.174,9
1580613797.174,9
1580613807.174,9
1580613817.174,9
1580613827.174,9
1580613837.174,9
1580613847.174,9
1580613857.174,9
1580613867.174,9
1580613877.174,9
1580613887.174,9
1580613897.174,10
1580613907.174,10
1580613917.174,10
1580613927.179,10
1580613937.174,10
1580613947.174,10
1580613957.174,10
1580613967.174,10
1580613977.174,10
1580613987.174,10
1580613997.174,10
1580614007.175,10
1580614017.174,10
1580614027.174,10
1580614037.174,10
1580614047.174,10
1580614057.174,10
1580614067.174,10
1580614077.174,10
1580614087.174,10
1580614097.174,10
1580614107.174,10
1580614117.174,10
1580614127.174,10
1580614137.174,10
1580614147.174,10
1580614157.174,10
1580614167.175,11
1580614177.174,11
1580614187.174,11
1580614197.174,11
1580614207.174,11
1580614217.174,11
1580614227.179,11
1580614237.174,11
1580614247.174,11
1580614257.174,11
1580614267.174,11
1580614277.174,11
1580614287.174,11
1580614297.174,11
1580614307.174,11
1580614317.174,11
1580614327.174,11
1580614337.179,11
1580614347.174,11
1580614357.174,12
1580614377.174,12
1580614387.174,12
1580614397.174,12
1580614407.174,12
1580614417.174,12
1580614427.174,12
1580614437.174,12
1580614447.174,12
1580614457.174,12
1580614467.174,12
1580614477.174,12
1580614487.174,12
1580614497.174,12
1580614507.174,12
1580614517.174,12
1580614527.174,12
1580614537.174,12
1580614547.174,12
1580614557.174,12
1580614567.174,12
1580614577.174,12
1580614587.174,12
1580614597.174,12
1580614607.174,12
1580614617.179,12
1580614627.174,12
1580614637.174,12
1580614647.174,12
1580614657.174,13
1580614667.174,13
1580614677.174,13
1580614687.174,13
1580614697.174,13
1580614707.174,13
1580614717.174,13
1580614727.174,13
1580614737.174,13
1580614747.174,13
1580614757.174,14
1580614767.174,14
1580614777.174,14
1580614787.174,14
1580614797.174,14
1580614807.174,14
1580614817.174,14
1580614827.174,14
1580614837.174,14
1580614847.174,14
1580614857.174,14
1580614867.174,14
1580614877.174,14
1580614887.174,14
1580614897.174,14
1580614907.174,14
1580614917.174,15
1580614927.174,15
1580614937.174,15
1580614947.174,15
1580614957.174,15
1580614967.174,15
1580614977.174,15
1580614987.174,15
1580614997.174,15
1580615007.174,15
1580615017.174,15
1580615027.174,15
1580615037.174,15
1580615047.174,15
1580615057.174,15
1580615067.174,16
1580615077.179,16
1580615087.174,16
1580615097.174,16
1580615107.174,16
1580615117.174,16
1580615127.174,16
1580615137.174,16
1580615157.174,16
1580615167.174,16
1580615177.174,16
1580615187.174,16
1580615197.174,16
1580615207.174,16
1580615217.174,17
1580615227.174,17
1580615237.174,17
1580615247.174,17
1580615257.174,17
1580615267.174,17
1580615277.174,17
1580615287.179,17
1580615297.174,17
1580615307.174,17
1580615317.174,17
1580615327.174,17
1580615337.174,17
1580615347.174,17
1580615357.174,17
1580615367.174,17
1580615377.174,17
1580615387.174,17
1580615397.174,17
1580615407.174,17
1580615417.174,17
1580615427.174,18
1580615437.174,18
1580615447.174,18
1580615457.174,18
1580615467.174,18
1580615477.174,18
1580615487.174,18
1580615497.174,18
1580615507.174,18
1580615517.174,18
1580615527.174,18
1580615537.174,18
1580615547.174,18
1580615557.174,18
1580615567.174,19
1580615577.174,19
1580615587.174,19
1580615597.174,19
1580615607.174,19
1580615617.179,19
1580615627.174,19
1580615637.174,19
1580615647.174,19
1580615657.174,19
1580615667.174,19
1580615677.174,19
1580615687.174,19
1580615697.174,20
1580615707.174,20
1580615717.174,20
1580615727.174,20
1580615737.174,20
1580615747.174,20
1580615767.174,20
1580615777.174,20
1580615787.174,20
1580615797.174,20
1580615807.174,20
1580615817.174,20
1580615827.174,20
1580615837.174,20
1580615847.174,20
1580615857.174,20
1580615867.174,20
1580615877.174,21
1580615887.174,21
1580615897.174,21
1580615907.174,21
1580615917.174,21
1580615927.174,21
1580615937.174,21
1580615947.174,21
1580615957.174,21
1580615967.174,21
1580615977.174,21
1580615987.174,21
1580615997.174,21
1580616007.174,21
1580616017.174,21
1580616027.174,21
1580616037.174,22
1580616047.174,22
1580616057.174,22
1580616067.174,22
1580616077.174,22
1580616087.174,22
1580616097.174,22
1580616107.174,22
1580616117.174,22
1580616127.174,22
1580616137.174,22
1580616147.174,22
1580616157.174,22
1580616167.174,22
1580616177.174,22
1580616187.174,22
1580616197.174,22
1580616207.174,22
1580616217.174,22
1580616227.174,23
1580616237.174,23
1580616247.174,23
1580616257.174,23
1580616267.174,23
1580616277.174,23
1580616287.174,23
1580616297.174,23
1580616307.174,23
1580616317.174,23
1580616327.174,23
1580616347.174,23
1580616357.174,23
1580616367.174,23
1580616377.174,23
1580616387.174,24
1580616397.174,24
1580616407.174,24
1580616417.174,24
1580616427.174,24
1580616437.174,24
1580616447.174,24
1580616457.174,24
1580616467.174,24
1580616477.174,24
1580616487.174,24
1580616497.174,24
1580616507.174,24
1580616517.174,24
1580616527.178,24
1580616537.179,24
1580616547.174,24
1580616557.174,24
1580616567.174,24
1580616577.174,24
1580616587.174,24
1580616597.174,24
1580616607.174,24
1580616617.174,24
1580616627.174,24
1580616637.174,25
1580616647.176,25
1580616657.174,25
1580616667.174,25
1580616677.174,25
1580616687.174,25
1580616697.174,25
1580616707.174,25
1580616717.174,25
1580616727.174,25
1580616737.174,25
1580616747.174,25
1580616757.174,25
1580616767.174,25
1580616777.174,26
1580616787.174,26
1580616797.174,26
1580616807.174,26
1580616817.174,26
1580616827.174,26
1580616837.174,26
1580616847.174,26
1580616857.174,26
1580616867.174,26
1580616877.174,27
1580616887.174,27
1580616897.174,27
1580616907.174,27
1580616917.174,27
1580616927.174,27
1580616937.174,27
1580616947.174,27
1580616957.174,27
1580616967.174,27
1580616977.174,27
1580616987.174,27
1580616997.174,27
1580617007.174,27
1580617017.174,28
1580617027.174,28
1580617037.174,28
1580617047.174,28
1580617057.174,28
1580617067.174,28
1580617077.174,28
1580617087.174,28
1580617097.175,28
1580617107.174,28
1580617117.174,28
1580617137.174,28
1580617147.174,28
1580617157.174,29
1580617167.174,29
1580617177.174,29
1580617187.174,29
1580617197.174,29
1580617207.174,29
1580617217.174,29
1580617227.174,29
1580617237.174,29
1580617247.174,29
1580617257.174,29
1580617267.174,29
1580617277.174,29
1580617287.174,29
1580617297.174,29
1580617307.174,29
1580617317.174,29
1580617327.174,29
1580617337.174,29
1580617347.174,29
1580617357.174,29
1580617367.174,29
1580617377.174,30
1580617387.174,30
1580617397.174,30
1580617407.174,30
1580617417.174,30
1580617427.174,30
1580617437.174,30
1580617447.174,30
1580617457.174,30
1580617467.174,31
1580617477.174,31
1580617487.174,31
1580617497.174,31
1580617507.175,31
1580617517.174,31
1580617527.174,31
1580617537.174,31
1580617547.174,31
1580617557.174,31
1580617567.174,31
1580617577.174,31
1580617587.174,31
1580617597.174,31
1580617607.174,31
1580617617.174,32
1580617627.174,32
1580617637.174,32
1580617647.174,32
1580617657.174,32
1580617667.174,32
1580617677.174,32
1580617687.174,32
1580617697.174,32
1580617707.174,32
1580617717.174,32
1580617727.174,32
1580617737.174,32
1580617747.174,32
1580617757.174,32
1580617767.174,32
1580617777.174,32
1580617787.174,32
1580617797.174,32
1580617807.174,32
1580617817.174,32
1580617827.174,32
1580617837.174,32
1580617847.174,33
1580617857.174,33
1580617867.174,33
1580617877.174,33
1580617887.174,33
1580617897.174,33
1580617907.174,33
1580617917.174,34
1580617927.174,34
1580617937.174,34
1580617947.174,34
1580617957.174,34
1580617967.174,34
1580617977.174,34
1580617987.174,34
1580617997.174,34
1580618007.174,34
1580618017.174,34
1580618027.174,34
1580618037.174,34
1580618047.174,34
1580618057.174,34
1580618067.174,34
1580618077.174,34
1580618087.174,34
1580618097.174,34
1580618107.174,34
1580618117.174,34
1580618127.174,35
1580618137.174,35
1580618147.174,35
1580618157.174,35
1580618167.174,35
1580618177.174,35
1580618187.174,35
1580618197.174,35
1580618207.174,35
1580618217.174,35
1580618227.174,35
1580618237.177,35
1580618247.174,35
1580618257.174,35
1580618267.174,35
1580618277.174,35
1580618287.174,35
1580618297.174,36
1580618307.174,36
1580618317.174,36
1580618327.174,36
1580618337.174,36
1580618347.174,36
1580618357.174,36
1580618367.174,36
1580618377.174,36
1580618387.174,36
1580618397.174,36
1580618407.174,36
1580618417.174,36
1580618427.174,36
1580618437.174,36
1580618447.174,36
1580618457.174,36
1580618467.174,36
1580618477.174,36
1580618487.174,36
1580618497.174,37
1580618507.174,37
1580618517.174,37
1580618527.174,37
1580618537.174,37
1580618547.174,37
1580618557.174,37
1580618567.174,37
1580618577.174,37
1580618587.174,37
1580618597.174,37
1580618607.174,37
1580618617.174,37
1580618627.174,37
1580618637.174,37
1580618647.174,37
1580618657.174,37
1580618667.174,37
1580618677.174,38
1580618687.174,38
1580618697.174,38
1580618707.174,38
1580618717.174,38
1580618727.174,38
1580618737.174,38
1580618747.179,38
1580618757.174,38
1580618767.174,38
1580618777.174,38
1580618787.174,39
1580618797.174,39
1580618807.174,39
1580618817.174,39
1580618827.174,39
1580618837.174,39
1580618847.174,39
1580618857.174,39
1580618867.174,39
1580618877.174,39
1580618887.174,39
1580618897.174,39
1580618907.174,39
1580618917.174,39
1580618927.174,39
1580618937.174,39
1580618947.174,39
1580618957.177,40
1580618967.174,40
1580618977.174,40
1580618987.174,40
1580618997.174,40
1580619007.174,40
1580619017.174,40
1580619027.174,40
1580619037.174,40
1580619047.174,40
1580619057.174,40
1580619067.174,40
1580619077.174,40
1580619087.174,40
1580619097.174,41
1580619107.174,41
1580619117.174,41
1580619127.174,41
1580619137.174,41
1580619147.174,41
1580619157.174,41
1580619167.174,41
1580619177.174,41
1580619187.174,41
1580619197.174,41
1580619207.174,41
1580619217.174,41
1580619227.174,41
1580619237.174,41
1580619247.174,41
1580619257.174,41
1580619267.174,42
1580619287.174,42
1580619297.174,42
1580619307.174,42
1580619317.174,42
1580619327.174,42
1580619337.174,42
1580619347.174,42
1580619357.174,42
1580619367.174,43
1580619377.174,43
1580619387.174,43
1580619397.174,43
1580619407.174,43
1580619417.174,43
1580619427.174,43
1580619437.174,43
1580619447.174,43
1580619457.174,43
1580619467.174,43
1580619477.174,43
1580619487.174,43
1580619497.174,43
1580619507.174,43
1580619517.174,43
1580619527.174,43
1580619537.174,43
1580619547.174,43
1580619557.174,44
1580619567.174,44
1580619577.174,44
1580619587.174,44
1580619597.174,44
1580619607.174,44
1580619617.174,44
1580619627.174,44
1580619637.174,44
1580619647.174,45
1580619657.174,45
1580619667.174,45
1580619677.174,45
1580619687.174,45
1580619697.174,45
1580619707.174,45
1580619717.174,45
1580619727.174,45
1580619737.174,45
1580619747.174,45
1580619757.174,45
1580619767.174,45
1580619777.174,45
1580619787.174,46
1580619807.174,46
