epoch,value
1579785128.065,236308
1579785138.047,236310
1579785148.048,236310
1579785158.047,236310
1579785168.047,236310
1579785178.050,236310
1579785188.047,236310
1579785198.047,236310
1579785208.047,236310
1579785218.048,236310
1579785228.047,236310
1579785238.047,236310
1579785248.047,236310
1579785258.050,236310
1579785268.047,236310
1579785278.047,236311
1579785288.047,236311
1579785298.047,236311
1579785308.047,236311
1579785318.048,236311
1579785328.049,236311
1579785338.047,236311
1579785348.048,236311
1579785358.047,236311
1579785368.047,236312
1579785378.047,236312
1579785388.049,236313
1579785398.047,236314
1579785408.047,236314
1579785418.048,236314
1579785428.047,236315
1579785438.048,236316
1579785448.047,236317
1579785458.047,236318
1579785468.048,236319
1579785478.047,236319
1579785488.048,236320
1579785498.048,236320
1579785508.047,236320
1579785518.047,236320
1579785528.048,236320
1579785538.047,236320
1579785548.047,236320
1579785558.047,236321
1579785568.051,236321
1579785578.048,236321
1579785588.047,236321
1579785598.047,236322
1579785608.047,236323
1579785618.047,236324
1579785628.047,236324
1579785638.049,236324
1579785648.047,236324
1579785658.047,236325
1579785668.047,236326
1579785678.047,236327
1579785688.049,236327
1579785698.047,236327
1579785708.049,236328
1579785718.051,236328
1579785728.048,236330
1579785738.047,236330
1579785748.049,236330
1579785758.047,236330
1579785768.050,236331
1579785778.049,236331
1579785788.047,236332
1579785798.047,236332
1579785808.047,236332
1579785818.047,236333
1579785828.047,236333
1579785838.049,236334
1579785848.049,236335
1579785858.047,236336
1579785868.047,236336
1579785878.047,236338
1579785888.047,236339
1579785898.048,236340
1579785908.047,236341
1579785918.048,236343
1579785928.047,236343
1579785938.047,236344
1579785948.047,236345
1579785958.047,236345
1579785968.047,236346
1579785978.047,236348
1579785988.048,236349
1579785998.047,236351
1579786008.048,236352
1579786018.047,236352
1579786028.047,236353
1579786038.047,236354
1579786048.047,236355
1579786058.047,236355
1579786068.047,236355
1579786078.047,236355
1579786088.047,236356
1579786098.048,236357
1579786108.047,236357
1579786118.048,236358
1579786128.047,236358
1579786138.048,236359
1579786148.047,236360
1579786158.047,236362
1579786168.047,236363
1579786178.047,236364
1579786188.047,236365
1579786198.047,236367
1579786208.047,236367
1579786218.049,236367
1579786228.049,236367
1579786238.048,236368
1579786248.047,236368
1579786258.048,236368
1579786268.047,236370
1579786278.047,236370
1579786288.047,236370
1579786298.047,236370
1579786308.047,236372
1579786318.047,236374
1579786328.047,236375
1579786338.047,236376
1579786348.047,236376
1579786358.048,236377
1579786368.048,236378
1579786378.047,236378
1579786388.047,236378
1579786398.047,236378
1579786408.047,236381
1579786418.047,236381
1579786428.047,236381
1579786438.051,236381
1579786448.047,236381
1579786458.047,236382
1579786468.051,236382
1579786478.047,236382
1579786488.047,236382
1579786498.048,236382
1579786508.048,236382
1579786518.047,236382
1579786528.048,236382
1579786538.047,236384
1579786548.047,236384
1579786558.047,236384
1579786568.050,236385
1579786578.048,236385
1579786588.047,236386
1579786598.047,236387
1579786608.047,236388
1579786618.049,236388
1579786628.047,236388
1579786638.049,236390
1579786648.047,236390
1579786658.047,236390
1579786668.049,236390
1579786678.047,236390
1579786688.047,236390
