epoch,value
1580209370.216,53258
1580209380.197,53258
1580209390.198,53258
1580209400.197,53258
1580209410.197,53258
1580209420.197,53258
1580209430.198,53258
1580209440.196,53258
1580209450.197,53258
1580209460.197,53258
1580209470.197,53258
1580209480.197,53258
1580209490.197,53258
1580209500.197,53259
1580209510.197,53259
1580209520.198,53259
1580209530.197,53259
1580209540.198,53260
1580209550.197,53260
1580209560.198,53260
1580209570.198,53260
1580209580.198,53260
1580209590.197,53260
1580209600.197,53260
1580209610.199,53260
1580209620.196,53260
1580209630.197,53260
1580209640.197,53260
1580209650.197,53260
1580209660.197,53260
1580209670.197,53260
1580209680.196,53262
1580209690.200,53262
1580209700.197,53264
1580209710.199,53264
1580209720.197,53265
1580209730.197,53265
1580209740.198,53265
1580209750.197,53265
1580209760.197,53265
1580209770.199,53265
1580209780.197,53266
1580209790.197,53266
1580209800.197,53266
1580209810.197,53267
1580209820.197,53267
1580209830.197,53267
1580209840.197,53267
1580209850.197,53267
1580209860.199,53267
1580209870.197,53267
1580209880.197,53267
1580209890.196,53267
1580209900.197,53267
1580209910.197,53267
1580209920.197,53267
1580209930.197,53267
1580209940.199,53267
1580209950.197,53268
1580209960.197,53268
1580209970.197,53270
1580209980.197,53270
1580209990.197,53271
1580210000.197,53272
1580210010.197,53272
1580210020.197,53272
1580210030.198,53273
1580210040.198,53273
1580210050.197,53273
1580210060.197,53275
1580210070.197,53275
1580210080.197,53275
1580210090.197,53275
1580210100.196,53275
1580210110.197,53277
1580210120.197,53277
1580210130.197,53277
1580210140.197,53277
1580210150.197,53277
1580210160.197,53277
1580210170.197,53277
1580210180.198,53277
1580210190.197,53277
1580210200.197,53277
1580210210.196,53277
1580210220.197,53277
1580210230.197,53277
1580210240.197,53277
1580210250.196,53277
1580210260.198,53277
1580210270.196,53277
1580210280.197,53277
1580210290.197,53277
1580210300.197,53277
1580210310.200,53277
1580210320.197,53278
1580210330.196,53278
1580210340.197,53278
1580210350.197,53278
1580210360.196,53278
1580210370.197,53278
1580210380.196,53278
1580210390.196,53279
1580210400.197,53279
1580210410.197,53279
1580210420.197,53279
1580210430.197,53279
1580210440.197,53279
1580210450.197,53279
1580210460.199,53279
1580210470.198,53279
1580210480.198,53279
1580210490.197,53279
1580210500.199,53279
1580210510.198,53280
1580210520.197,53280
1580210530.199,53280
1580210540.197,53280
1580210550.197,53281
1580210560.198,53281
1580210570.197,53281
1580210580.198,53281
1580210590.197,53281
1580210600.197,53281
1580210610.197,53281
1580210620.197,53281
1580210630.197,53281
1580210640.197,53282
1580210650.197,53282
1580210660.197,53282
1580210670.197,53282
1580210680.196,53282
1580210690.197,53282
1580210700.197,53283
1580210710.198,53283
1580210720.197,53283
1580210730.197,53283
1580210740.197,53284
1580210750.198,53284
1580210760.198,53284
1580210770.197,53286
1580210780.197,53286
1580210790.197,53286
1580210800.197,53286
1580210810.200,53286
1580210820.199,53286
1580210830.198,53286
1580210840.197,53286
1580210850.197,53286
1580210860.197,53286
1580210870.196,53286
1580210880.197,53286
1580210890.197,53286
1580210900.197,53286
1580210910.200,53286
1580210920.197,53286
1580210930.197,53286
1580210940.198,53286
1580210950.197,53286
1580210960.200,53286
1580210970.197,53286
1580210980.197,53286
1580210990.197,53286
1580211000.197,53286
1580211010.197,53290
1580211020.196,53290
1580211030.197,53290
1580211040.197,53290
1580211050.197,53290
1580211060.198,53290
1580211070.197,53290
1580211080.197,53290
1580211090.197,53290
1580211100.197,53290
1580211110.196,53290
1580211120.197,53290
1580211130.196,53290
1580211140.197,53290
1580211150.197,53290
1580211160.197,53291
1580211170.196,53291
1580211180.197,53292
1580211190.197,53292
1580211200.197,53292
1580211210.197,53295
1580211220.201,53295
1580211230.198,53295
1580211240.197,53295
1580211250.199,53295
1580211260.197,53295
1580211270.197,53295
1580211280.197,53295
1580211290.197,53295
1580211300.197,53295
1580211310.197,53295
1580211320.197,53295
1580211330.197,53295
1580211340.197,53295
1580211350.197,53295
1580211360.196,53295
1580211370.196,53295
1580211380.197,53295
1580211390.197,53295
1580211400.197,53296
1580211410.197,53296
1580211420.197,53296
1580211430.197,53296
1580211440.197,53296
1580211450.197,53296
1580211460.197,53296
1580211470.197,53296
1580211480.197,53296
1580211490.197,53296
1580211500.197,53296
1580211510.197,53296
1580211520.197,53296
1580211530.197,53296
1580211540.199,53296
1580211550.197,53297
1580211560.197,53297
1580211570.197,53298
1580211580.197,53300
1580211590.197,53300
1580211600.197,53301
1580211610.197,53301
1580211620.197,53301
1580211630.197,53301
1580211640.197,53301
1580211650.197,53301
1580211660.197,53301
1580211670.197,53301
1580211680.197,53301
1580211690.197,53301
1580211700.197,53301
1580211710.197,53301
1580211720.197,53301
1580211730.196,53301
1580211740.197,53302
1580211750.197,53302
1580211760.197,53302
1580211770.197,53302
1580211780.197,53302
1580211790.196,53302
1580211800.200,53302
1580211810.197,53302
1580211820.198,53302
1580211830.197,53302
1580211840.197,53302
1580211850.197,53302
1580211860.197,53302
1580211870.197,53302
1580211880.198,53302
1580211890.197,53302
1580211900.198,53302
1580211910.197,53302
1580211920.196,53302
1580211930.197,53303
1580211940.197,53303
1580211950.196,53303
1580211960.197,53304
1580211970.197,53305
1580211980.197,53306
1580211990.198,53306
1580212000.197,53306
1580212010.198,53306
1580212020.197,53306
1580212030.197,53306
1580212040.197,53306
1580212050.196,53306
1580212060.197,53306
1580212070.197,53307
1580212080.198,53308
1580212090.197,53308
1580212100.197,53308
1580212110.197,53308
1580212120.198,53308
1580212130.197,53308
1580212140.198,53310
1580212150.197,53310
