epoch,value
1579797874.230,37862
1579797884.212,37862
1579797894.213,37862
1579797904.213,37862
1579797914.213,37862
1579797924.212,37862
1579797934.212,37862
1579797944.215,37862
1579797954.212,37862
1579797964.212,37862
1579797974.212,37862
1579797984.212,37862
1579797994.212,37862
1579798004.212,37862
1579798014.212,37862
1579798024.212,37862
1579798034.212,37862
1579798044.213,37862
1579798054.212,37862
1579798064.213,37862
1579798074.212,37862
1579798084.212,37862
1579798094.213,37862
1579798104.212,37862
1579798114.212,37862
1579798124.212,37862
1579798134.212,37862
1579798144.212,37862
1579798154.212,37862
1579798164.212,37862
1579798174.212,37862
1579798184.214,37862
1579798194.212,37862
1579798204.212,37862
1579798214.213,37862
1579798224.212,37862
1579798234.212,37862
1579798244.212,37862
1579798254.213,37862
1579798264.212,37862
1579798274.212,37862
1579798284.212,37862
1579798294.212,37862
1579798304.213,37862
1579798314.213,37862
1579798324.212,37862
1579798334.212,37862
1579798344.212,37862
1579798354.212,37862
1579798364.212,37862
1579798374.212,37862
1579798384.212,37862
1579798394.212,37862
1579798404.212,37862
1579798414.214,37862
1579798424.212,37863
1579798434.212,37863
1579798444.213,37863
1579798454.214,37863
1579798464.212,37863
1579798474.213,37863
1579798484.212,37863
1579798494.212,37863
1579798504.212,37863
1579798514.212,37863
1579798524.212,37863
1579798534.211,37863
1579798544.213,37863
1579798554.212,37863
1579798564.212,37863
1579798574.212,37863
1579798584.213,37863
1579798594.214,37863
1579798604.212,37863
1579798614.214,37863
1579798624.212,37863
1579798634.212,37863
1579798644.212,37863
1579798654.212,37864
1579798664.212,37864
1579798674.213,37864
1579798684.212,37864
1579798694.212,37864
1579798704.212,37864
1579798714.213,37864
1579798724.213,37864
1579798734.212,37864
1579798744.212,37864
1579798754.214,37864
1579798764.212,37864
1579798774.212,37864
1579798784.212,37864
1579798794.213,37865
1579798804.212,37865
1579798814.212,37865
1579798824.212,37865
1579798834.212,37865
1579798844.213,37865
1579798854.212,37865
1579798864.212,37865
1579798874.213,37865
1579798884.212,37865
1579798894.212,37865
1579798904.213,37865
1579798914.212,37865
1579798924.212,37865
1579798934.212,37866
1579798944.213,37866
1579798954.212,37866
1579798964.212,37866
1579798974.212,37866
1579798984.212,37866
1579798994.212,37866
1579799004.212,37866
1579799014.212,37866
1579799024.213,37866
1579799034.212,37868
1579799044.212,37868
1579799054.212,37868
1579799064.212,37868
1579799074.212,37868
1579799084.212,37868
1579799094.212,37869
1579799104.212,37869
1579799114.212,37869
1579799124.215,37869
1579799134.215,37869
1579799144.212,37869
1579799154.212,37869
1579799164.213,37869
1579799174.212,37869
1579799184.212,37869
1579799194.212,37869
1579799204.212,37869
1579799214.212,37869
1579799224.212,37869
1579799234.212,37869
1579799244.213,37869
1579799254.212,37869
1579799264.212,37869
1579799274.212,37869
1579799284.212,37870
1579799294.213,37870
1579799304.212,37870
1579799314.212,37870
1579799324.212,37870
1579799334.212,37870
1579799344.215,37870
1579799354.212,37870
1579799364.212,37870
1579799374.212,37870
1579799384.212,37870
1579799394.213,37870
1579799404.212,37870
1579799414.212,37871
1579799424.213,37871
1579799434.212,37871
