epoch,value
1579790460.249,37809
1579790470.232,37809
1579790480.231,37809
1579790490.231,37809
1579790500.231,37809
1579790510.231,37809
1579790520.231,37809
1579790530.231,37809
1579790540.231,37810
1579790550.230,37810
1579790560.231,37810
1579790570.231,37810
1579790580.233,37810
1579790590.231,37810
1579790600.231,37810
1579790610.231,37810
1579790620.233,37810
1579790630.232,37810
1579790640.232,37810
1579790650.231,37810
1579790660.231,37810
1579790670.232,37810
1579790680.231,37810
1579790690.231,37810
1579790700.230,37810
1579790710.231,37810
1579790720.231,37810
1579790730.231,37810
1579790740.235,37810
1579790750.231,37810
1579790760.231,37810
1579790770.231,37810
1579790780.232,37810
1579790790.231,37810
1579790800.231,37810
1579790810.231,37810
1579790820.231,37810
1579790830.231,37810
1579790840.230,37810
1579790850.230,37810
1579790860.231,37810
1579790870.230,37810
1579790880.231,37810
1579790890.231,37810
1579790900.231,37810
1579790910.231,37810
1579790920.231,37810
1579790930.231,37810
1579790940.231,37810
1579790950.231,37810
1579790960.231,37810
1579790970.231,37810
1579790980.231,37811
1579790990.231,37811
1579791000.230,37811
1579791010.230,37811
1579791020.230,37811
1579791030.231,37811
1579791040.231,37811
1579791050.230,37811
1579791060.231,37811
1579791070.230,37811
1579791080.231,37811
1579791090.232,37811
1579791100.231,37811
1579791110.231,37811
1579791120.231,37812
1579791130.231,37812
1579791140.232,37812
1579791150.231,37812
1579791160.231,37812
1579791170.230,37812
1579791180.231,37812
1579791190.231,37812
1579791200.231,37812
1579791210.231,37812
1579791220.231,37812
1579791230.231,37812
1579791240.231,37813
1579791250.231,37814
1579791260.231,37814
1579791270.231,37815
1579791280.231,37816
1579791290.231,37816
1579791300.231,37816
1579791310.231,37816
1579791320.231,37816
1579791330.231,37816
1579791340.231,37816
1579791350.231,37816
1579791360.232,37816
1579791370.232,37816
1579791380.231,37816
1579791390.231,37816
1579791400.231,37816
1579791410.232,37816
1579791420.234,37816
1579791430.231,37816
1579791440.232,37816
1579791450.231,37816
1579791460.231,37818
1579791470.231,37818
1579791480.233,37818
1579791490.230,37818
1579791500.231,37818
1579791510.231,37819
1579791520.231,37819
1579791530.231,37819
1579791540.231,37820
1579791550.231,37820
1579791560.231,37820
1579791570.231,37820
1579791580.231,37821
1579791590.231,37821
1579791600.231,37822
1579791610.230,37823
1579791620.231,37824
1579791630.232,37825
1579791640.231,37825
1579791650.230,37827
1579791660.231,37827
1579791670.231,37827
1579791680.231,37827
1579791690.231,37829
1579791700.233,37830
1579791710.231,37832
1579791720.231,37832
1579791730.231,37834
1579791740.231,37834
1579791750.232,37834
1579791760.231,37834
1579791770.231,37834
1579791780.230,37834
1579791790.231,37834
1579791800.230,37834
1579791810.231,37834
1579791820.236,37834
1579791830.231,37834
1579791840.231,37834
1579791850.230,37834
1579791860.231,37834
1579791870.231,37834
1579791880.231,37834
1579791890.232,37834
1579791900.232,37834
1579791910.230,37834
1579791920.231,37834
1579791930.232,37834
1579791940.231,37835
1579791950.231,37835
1579791960.231,37835
1579791970.231,37835
1579791980.232,37835
1579791990.231,37836
1579792000.231,37836
1579792010.230,37836
1579792020.230,37836
