epoch,value
1580479993.275,0
1580480003.275,0
1580480013.281,0
1580480023.275,4
1580480033.275,11
1580480043.275,24
1580480053.275,26
1580480073.275,35
1580480083.275,43
1580480093.275,44
1580480103.275,44
1580480113.275,47
1580480123.275,55
1580480133.275,55
1580480143.275,57
1580480153.275,65
1580480163.275,66
1580480173.275,71
1580480193.280,73
1580480203.275,74
1580480213.275,78
1580480223.275,85
1580480233.275,86
1580480243.275,87
1580480253.275,87
1580480263.275,89
1580480273.275,114
1580480283.275,114
1580480293.275,116
1580480303.275,121
1580480313.275,122
1580480323.275,122
1580480333.275,122
1580480343.275,122
1580480353.275,122
1580480363.275,122
1580480373.275,122
1580480383.275,122
1580480393.275,122
1580480403.275,122
1580480413.275,122
1580480423.275,122
1580480433.275,122
1580480443.275,122
1580480453.275,122
1580480463.275,122
1580480473.275,122
1580480483.275,122
1580480493.275,122
1580480503.275,122
1580480513.275,122
1580480523.275,122
1580480533.275,122
1580480543.275,122
1580480553.275,122
1580480563.275,122
1580480573.275,122
1580480583.275,122
1580480593.275,122
1580480603.275,122
1580480613.275,122
1580480623.275,122
1580480633.279,122
1580480643.275,123
1580480653.275,123
1580480663.275,123
1580480673.275,123
1580480683.275,123
1580480693.275,123
1580480703.275,123
1580480713.275,123
1580480723.275,123
1580480733.275,123
1580480743.275,123
1580480753.275,123
1580480763.275,124
1580480773.275,124
1580480783.275,124
1580480793.275,124
1580480803.275,124
1580480813.275,124
1580480823.275,124
1580480833.275,124
1580480843.275,124
1580480853.275,124
1580480863.275,124
1580480873.275,124
1580480883.275,124
1580480893.275,124
1580480903.275,124
1580480913.275,124
1580480923.275,124
1580480933.275,124
1580480943.275,124
1580480953.275,124
1580480963.275,124
1580480973.275,124
1580480983.275,124
1580480993.275,124
1580481003.275,124
1580481013.275,124
1580481023.275,124
1580481033.275,125
1580481043.275,125
1580481053.275,125
1580481063.275,125
1580481073.275,125
1580481083.275,125
1580481093.275,125
1580481103.275,125
1580481113.275,125
1580481123.275,125
1580481133.275,125
1580481143.275,125
1580481153.275,125
1580481163.275,125
1580481173.275,125
1580481183.275,125
1580481193.275,125
1580481203.275,125
1580481213.275,125
1580481223.275,125
1580481233.275,125
1580481243.275,125
1580481253.275,126
1580481263.275,126
1580481273.275,126
1580481283.275,126
1580481293.275,126
1580481303.275,126
1580481313.275,126
1580481323.275,126
1580481333.275,126
1580481343.275,126
1580481353.275,126
1580481363.275,126
1580481373.275,126
1580481383.275,126
1580481393.275,126
1580481403.275,126
1580481413.275,126
1580481423.275,126
1580481433.275,126
1580481443.275,126
1580481453.275,126
1580481463.275,126
1580481473.275,126
1580481483.275,126
1580481493.275,126
1580481503.275,126
1580481513.275,126
1580481523.277,127
