epoch,value
1579792936.887,50774
1579792946.869,50774
1579792956.869,50774
1579792966.869,50774
1579792976.869,50774
1579792986.869,50774
1579792996.869,50774
1579793006.869,50774
1579793016.869,50774
1579793026.869,50774
1579793036.869,50774
1579793046.869,50775
1579793056.869,50775
1579793066.869,50776
1579793076.869,50776
1579793086.869,50776
1579793096.869,50777
1579793106.869,50777
1579793116.869,50777
1579793126.869,50777
1579793136.869,50778
1579793146.869,50778
1579793156.869,50779
1579793166.869,50779
1579793176.869,50780
1579793186.869,50782
1579793196.869,50782
1579793206.869,50782
1579793216.869,50782
1579793226.869,50782
1579793236.870,50782
1579793246.869,50782
1579793256.869,50782
1579793266.870,50782
1579793276.869,50782
1579793286.869,50782
1579793296.869,50782
1579793306.869,50782
1579793316.869,50782
1579793326.869,50782
1579793336.869,50782
1579793346.869,50782
1579793356.869,50782
1579793366.869,50782
1579793376.870,50782
1579793386.869,50782
1579793396.870,50782
1579793406.869,50782
1579793416.870,50782
1579793426.869,50782
1579793436.873,50782
1579793446.869,50782
1579793456.869,50782
1579793466.869,50782
1579793476.869,50782
1579793486.869,50782
1579793496.869,50784
1579793506.869,50784
1579793516.869,50784
1579793526.869,50784
1579793536.869,50784
1579793546.869,50784
1579793556.869,50784
1579793566.869,50784
1579793576.869,50784
1579793586.869,50785
1579793596.869,50786
1579793606.869,50786
1579793616.870,50786
1579793626.869,50786
1579793636.869,50786
1579793646.869,50786
1579793656.869,50786
1579793666.869,50786
1579793676.871,50786
1579793686.869,50786
1579793696.869,50786
1579793706.869,50786
1579793716.869,50786
1579793726.873,50786
1579793736.870,50786
1579793746.869,50786
1579793756.869,50786
1579793766.869,50786
1579793776.869,50787
1579793786.870,50787
1579793796.869,50787
1579793806.869,50787
1579793816.870,50787
1579793826.871,50788
1579793836.869,50790
1579793846.871,50792
1579793856.869,50793
1579793866.869,50793
1579793876.869,50793
1579793886.871,50794
1579793896.869,50794
1579793906.869,50794
1579793916.869,50794
1579793926.869,50795
1579793936.869,50795
1579793946.869,50795
1579793956.869,50795
1579793966.869,50795
1579793976.869,50795
1579793986.870,50795
1579793996.870,50795
1579794006.869,50795
1579794016.869,50795
1579794026.869,50795
1579794036.870,50796
1579794046.869,50796
1579794056.869,50796
1579794066.870,50796
1579794076.869,50796
1579794086.869,50796
1579794096.872,50796
1579794106.869,50797
1579794116.869,50797
1579794126.869,50797
1579794136.869,50797
1579794146.869,50797
1579794156.869,50797
1579794166.869,50798
1579794176.869,50798
1579794186.869,50800
1579794196.869,50800
1579794206.869,50800
1579794216.869,50800
1579794226.869,50800
1579794236.871,50800
1579794246.869,50800
1579794256.869,50800
1579794266.869,50800
1579794276.869,50800
1579794286.869,50800
1579794296.871,50802
1579794306.869,50802
1579794316.869,50802
1579794326.869,50802
1579794336.869,50802
1579794346.869,50802
1579794356.869,50802
1579794366.869,50802
1579794376.869,50802
1579794386.869,50802
1579794396.869,50802
1579794406.869,50802
1579794416.869,50802
1579794426.869,50802
1579794436.870,50802
1579794446.871,50802
1579794456.869,50802
1579794466.870,50802
1579794476.869,50802
1579794486.869,50802
1579794496.871,50802
