epoch,value
1580229401.399,14098
1580229411.382,14098
1580229421.381,14098
1580229431.381,14098
1580229441.382,14098
1580229451.381,14098
1580229461.381,14098
1580229471.381,14098
1580229481.381,14098
1580229491.381,14098
1580229501.381,14098
1580229511.383,14098
1580229521.381,14098
1580229531.381,14098
1580229541.382,14098
1580229551.381,14098
1580229561.381,14098
1580229571.381,14098
1580229581.381,14098
1580229591.381,14098
1580229601.381,14098
1580229611.382,14098
1580229621.381,14098
1580229631.381,14098
1580229641.381,14098
1580229651.381,14098
1580229661.382,14098
1580229671.382,14098
1580229681.381,14098
1580229691.381,14098
1580229701.381,14098
1580229711.384,14098
1580229721.381,14098
1580229731.381,14098
1580229741.381,14098
1580229751.381,14098
1580229761.381,14099
1580229771.382,14100
1580229781.381,14100
1580229791.381,14100
1580229801.381,14100
1580229811.381,14100
1580229821.381,14100
1580229831.381,14100
1580229841.381,14100
1580229851.381,14100
1580229861.381,14100
1580229871.381,14100
1580229881.381,14100
1580229891.382,14100
1580229901.381,14100
1580229911.381,14100
1580229921.381,14100
1580229931.381,14100
1580229941.381,14100
1580229951.382,14100
1580229961.382,14100
1580229971.382,14100
1580229981.381,14100
1580229991.381,14100
1580230001.381,14100
1580230011.382,14100
1580230021.381,14100
1580230031.384,14100
1580230041.381,14100
1580230051.381,14100
1580230061.383,14100
1580230071.381,14100
1580230081.382,14100
1580230091.381,14100
1580230101.382,14100
1580230111.381,14100
1580230121.381,14100
1580230131.382,14100
1580230141.381,14100
1580230151.381,14100
1580230161.381,14101
1580230171.381,14101
1580230181.383,14101
1580230191.381,14101
1580230201.381,14101
1580230211.381,14101
1580230221.382,14101
1580230231.381,14101
1580230241.381,14101
1580230251.381,14101
1580230261.381,14101
1580230271.381,14101
1580230281.381,14101
1580230291.381,14101
1580230301.381,14101
1580230311.382,14101
1580230321.381,14101
1580230331.381,14101
1580230341.381,14102
1580230351.384,14102
1580230361.381,14102
1580230371.381,14102
1580230381.381,14102
1580230391.381,14102
1580230401.381,14102
1580230411.382,14102
1580230421.383,14102
1580230431.381,14102
1580230441.381,14102
1580230451.381,14102
1580230461.381,14102
1580230471.381,14102
1580230481.381,14102
1580230491.381,14102
1580230501.381,14102
1580230511.381,14102
1580230521.381,14102
1580230531.381,14102
1580230541.383,14102
1580230551.381,14102
1580230561.381,14102
1580230571.381,14102
1580230581.382,14102
1580230591.383,14102
1580230601.383,14102
1580230611.385,14102
1580230621.382,14102
1580230631.381,14102
1580230641.382,14102
1580230651.381,14102
1580230661.381,14102
1580230671.381,14102
1580230681.381,14102
1580230691.382,14102
1580230701.382,14102
1580230711.381,14102
1580230721.382,14102
1580230731.381,14102
1580230741.381,14102
1580230751.381,14102
1580230761.382,14102
1580230771.381,14102
1580230781.381,14102
1580230791.381,14102
1580230801.381,14102
1580230811.381,14102
1580230821.381,14102
1580230831.382,14102
1580230841.384,14102
1580230851.383,14102
1580230861.381,14102
1580230871.381,14102
1580230881.381,14102
1580230891.382,14102
1580230901.382,14102
1580230911.381,14102
1580230921.382,14102
1580230931.381,14102
1580230941.382,14102
1580230951.381,14102
1580230961.382,14102
1580230971.382,14102
1580230981.381,14102
1580230991.381,14102
1580231001.382,14102
1580231011.381,14102
1580231021.381,14102
1580231031.381,14102
1580231041.382,14102
1580231051.381,14102
1580231061.381,14102
1580231071.381,14102
1580231081.381,14102
1580231091.381,14102
1580231101.381,14102
1580231111.381,14102
1580231121.381,14102
1580231131.381,14102
1580231141.382,14102
1580231151.381,14102
1580231161.381,14102
1580231171.381,14102
1580231181.385,14102
1580231191.381,14102
1580231201.381,14102
1580231211.381,14102
1580231221.381,14102
1580231231.381,14102
1580231241.381,14102
1580231251.383,14102
1580231261.384,14102
1580231271.381,14102
1580231281.382,14102
1580231291.382,14102
1580231301.381,14102
1580231311.381,14102
1580231321.381,14102
1580231331.381,14102
1580231341.381,14102
1580231351.382,14102
1580231361.381,14102
1580231371.381,14102
1580231381.381,14102
1580231391.381,14102
1580231401.381,14102
1580231411.381,14102
1580231421.381,14102
1580231431.383,14102
1580231441.381,14102
1580231451.382,14102
1580231461.381,14102
1580231471.382,14102
1580231481.383,14102
1580231491.381,14102
1580231501.382,14102
1580231511.381,14102
1580231521.381,14102
1580231531.381,14102
1580231541.381,14102
1580231551.381,14102
1580231561.381,14102
1580231571.382,14102
1580231581.381,14102
1580231591.382,14102
1580231601.383,14102
1580231611.381,14102
1580231621.382,14102
1580231631.381,14102
1580231641.381,14102
1580231651.381,14102
1580231661.381,14102
1580231671.381,14102
1580231681.383,14102
1580231691.381,14102
1580231701.381,14102
1580231711.381,14102
1580231721.384,14102
1580231731.383,14102
1580231741.382,14102
1580231751.381,14102
1580231761.381,14102
1580231771.381,14102
1580231781.382,14102
1580231791.381,14102
1580231801.382,14102
1580231811.382,14102
1580231821.381,14102
1580231831.381,14102
1580231841.381,14102
1580231851.382,14102
1580231861.382,14102
1580231871.381,14102
1580231881.381,14102
1580231891.381,14102
1580231901.381,14102
1580231911.381,14102
1580231921.381,14102
1580231931.381,14102
1580231941.381,14102
1580231951.381,14102
1580231961.382,14102
1580231971.381,14102
1580231981.381,14102
1580231991.381,14102
1580232001.381,14102
1580232011.384,14102
1580232021.386,14102
1580232031.382,14102
1580232041.381,14102
1580232051.381,14102
1580232061.381,14102
1580232071.382,14102
1580232081.381,14102
1580232091.381,14102
1580232101.381,14102
1580232111.383,14102
1580232121.381,14102
1580232131.383,14102
1580232141.381,14102
1580232151.381,14102
1580232161.383,14102
1580232171.381,14102
