epoch,value
1579911553.025,0
1579911563.019,0
1579911573.019,0
1579911583.019,0
1579911593.019,0
1579911603.019,0
1579911613.019,0
1579911623.019,0
1579911633.019,0
1579911643.020,0
1579911653.019,0
1579911663.019,0
1579911673.019,0
1579911683.019,0
1579911693.019,0
1579911703.019,0
1579911713.019,0
1579911723.019,0
1579911733.025,0
1579911743.019,0
1579911753.019,0
1579911763.019,0
1579911773.019,0
1579911783.019,0
1579911793.019,0
1579911803.019,0
1579911813.019,0
1579911823.019,0
1579911833.019,0
1579911843.019,0
1579911853.019,0
1579911863.019,0
1579911873.019,0
1579911883.019,0
1579911893.019,0
1579911903.019,0
1579911913.019,0
1579911923.019,0
1579911933.019,0
1579911943.019,0
1579911953.019,0
1579911963.019,0
1579911973.019,0
1579911983.019,0
1579911993.019,0
1579912003.019,0
1579912023.019,0
1579912033.019,0
1579912043.019,0
1579912053.019,0
1579912063.019,0
1579912073.019,0
1579912083.019,0
1579912093.019,0
1579912103.019,0
1579912113.019,0
1579912123.019,0
1579912133.019,0
1579912143.019,0
1579912153.019,0
1579912163.019,0
1579912173.019,0
1579912183.019,0
1579912193.019,0
1579912203.019,0
1579912213.019,0
1579912223.019,1
1579912233.019,1
1579912243.019,1
1579912253.019,1
1579912263.019,1
1579912273.019,1
1579912283.019,1
1579912293.019,1
1579912303.019,1
1579912313.019,1
1579912323.019,1
1579912333.019,1
1579912343.019,1
1579912353.019,1
1579912363.019,1
1579912373.019,1
1579912383.019,1
1579912393.019,1
1579912403.019,1
1579912413.019,1
1579912423.019,1
1579912433.019,1
1579912443.019,1
1579912453.019,1
1579912463.019,1
1579912473.019,1
1579912483.019,1
1579912493.019,1
1579912503.019,1
1579912513.019,1
1579912523.019,1
1579912533.019,1
1579912543.019,1
1579912553.019,1
1579912563.019,1
1579912573.019,1
1579912583.019,1
1579912593.019,1
1579912603.019,1
1579912613.019,1
1579912623.019,1
1579912633.019,1
1579912643.019,1
1579912653.019,1
1579912663.019,1
1579912673.021,1
1579912683.019,1
1579912693.019,1
1579912703.019,1
1579912713.019,1
1579912723.019,1
1579912733.019,1
1579912743.019,1
1579912753.019,1
1579912763.019,1
1579912773.019,1
1579912783.025,1
1579912793.019,1
1579912803.019,1
1579912813.019,1
1579912823.019,1
1579912833.019,1
1579912843.019,1
1579912853.019,1
1579912863.019,1
1579912873.019,1
1579912883.019,2
1579912893.019,2
1579912903.019,2
1579912913.019,2
1579912923.019,2
1579912933.019,2
1579912943.019,2
1579912953.019,2
1579912963.019,2
1579912973.019,2
1579912983.019,2
1579912993.019,2
1579913003.019,2
1579913013.019,2
1579913023.019,2
1579913033.019,2
1579913043.019,2
1579913053.019,2
1579913063.019,2
1579913073.019,2
1579913083.019,2
1579913093.019,2
1579913103.019,2
1579913113.019,2
1579913123.019,2
1579913133.019,2
1579913143.019,2
1579913153.019,2
1579913163.019,2
1579913173.019,2
1579913183.019,2
1579913193.019,2
1579913203.019,2
1579913213.019,2
1579913223.019,2
1579913233.019,2
1579913243.019,2
1579913253.019,2
1579913263.019,2
1579913273.019,2
1579913283.019,2
1579913293.019,2
1579913303.019,2
1579913313.019,2
1579913323.019,2
1579913333.019,2
1579913343.019,2
1579913353.019,2
1579913363.019,2
1579913373.019,2
1579913383.019,2
1579913393.019,2
1579913403.019,2
1579913413.019,2
1579913423.019,2
1579913433.019,2
1579913443.019,2
1579913453.019,2
1579913463.019,2
1579913473.019,2
1579913483.019,2
1579913493.019,2
1579913503.019,2
1579913513.019,2
1579913523.019,2
1579913533.019,2
1579913543.019,2
1579913553.019,2
1579913563.019,2
1579913573.019,2
1579913583.019,2
1579913593.019,2
1579913603.019,2
1579913613.019,2
1579913623.019,2
1579913633.019,2
1579913643.019,2
1579913653.019,2
1579913663.019,2
1579913673.019,2
1579913683.019,2
1579913693.019,2
1579913703.019,2
1579913713.019,2
1579913723.019,2
1579913733.019,2
1579913743.019,2
1579913753.019,2
1579913763.019,2
1579913773.019,2
1579913783.019,2
1579913793.019,2
1579913803.019,2
1579913813.019,2
1579913823.019,2
1579913833.019,2
1579913843.019,2
1579913853.019,2
1579913863.019,2
1579913873.019,3
1579913883.019,3
1579913893.019,3
1579913903.019,3
1579913913.019,3
1579913923.019,3
1579913933.019,3
1579913943.019,3
1579913953.019,3
1579913963.019,3
1579913973.019,3
1579913983.019,3
1579913993.019,3
1579914003.019,3
1579914013.019,3
1579914023.019,3
1579914033.019,3
1579914043.019,3
1579914053.019,3
1579914063.019,3
1579914073.019,3
1579914083.019,3
1579914093.019,3
1579914103.019,3
1579914113.019,3
1579914123.019,3
1579914133.019,3
1579914143.019,3
1579914153.019,3
1579914163.019,3
1579914173.019,3
1579914183.019,3
1579914193.019,3
1579914203.019,3
1579914213.019,3
1579914223.019,3
1579914233.019,3
1579914243.019,3
1579914253.019,3
1579914263.019,3
1579914273.019,3
1579914283.019,3
