epoch,value
1580485208.961,0
1580485218.961,0
1580485228.961,0
1580485238.961,0
1580485248.961,0
1580485258.961,0
1580485268.961,0
1580485278.961,0
1580485288.961,0
1580485298.961,1
1580485308.961,1
1580485318.961,1
1580485328.961,1
1580485338.961,1
1580485348.961,1
1580485358.961,1
1580485368.961,1
1580485378.961,1
1580485388.961,1
1580485398.961,1
1580485408.962,1
1580485418.962,1
1580485428.961,1
1580485438.961,1
1580485448.961,1
1580485458.961,1
1580485468.961,2
1580485478.961,2
1580485488.961,2
1580485498.961,2
1580485508.961,2
1580485518.961,2
1580485528.961,2
1580485538.961,2
1580485548.961,2
1580485558.961,2
1580485568.961,2
1580485578.961,2
1580485588.961,2
1580485598.961,2
1580485608.961,2
1580485618.961,2
1580485628.961,2
1580485648.961,2
1580485658.961,2
1580485668.961,2
1580485678.961,2
1580485688.965,2
1580485698.961,2
1580485708.961,2
1580485718.961,2
1580485728.961,2
1580485738.961,2
1580485748.961,2
1580485758.961,2
1580485768.961,2
1580485778.961,2
1580485788.961,2
1580485798.961,2
1580485808.961,2
1580485818.961,2
1580485828.961,2
1580485838.961,2
1580485848.961,2
1580485858.961,2
1580485868.961,2
1580485878.961,2
1580485888.961,2
1580485898.961,2
1580485908.961,2
1580485918.961,2
1580485928.961,2
1580485938.961,2
1580485948.961,2
1580485958.961,2
1580485968.961,2
1580485978.961,2
1580485988.961,2
1580485998.961,2
1580486018.961,2
1580486028.961,2
1580486038.961,3
1580486048.961,3
1580486058.961,3
1580486068.961,3
1580486078.961,3
1580486088.961,3
1580486098.961,3
1580486108.961,3
1580486118.961,3
1580486128.961,3
1580486138.961,3
1580486148.961,3
1580486158.961,3
1580486168.961,3
1580486178.961,3
1580486188.961,3
1580486198.961,3
1580486208.961,3
1580486218.961,3
1580486228.961,3
1580486238.961,3
1580486248.961,3
1580486258.961,3
1580486268.961,3
1580486278.961,3
1580486288.961,3
1580486298.961,3
1580486308.961,3
1580486318.961,3
1580486328.961,3
1580486338.961,3
1580486348.961,3
1580486358.961,3
1580486368.961,3
1580486378.961,3
1580486388.961,3
1580486398.961,3
1580486408.961,3
1580486418.961,3
1580486428.961,3
1580486438.961,3
1580486448.961,3
1580486458.961,3
1580486468.961,3
1580486478.961,3
1580486488.961,3
1580486498.961,3
1580486508.961,3
1580486518.961,3
1580486528.961,3
1580486538.961,3
1580486548.961,3
1580486558.961,3
1580486568.961,3
1580486578.961,3
1580486588.961,3
1580486598.961,3
1580486608.961,3
1580486618.961,3
1580486638.961,3
1580486648.961,3
1580486658.961,4
1580486668.961,4
1580486678.961,4
1580486688.961,4
1580486698.961,4
1580486708.961,4
1580486718.961,4
1580486728.961,4
1580486738.961,4
