epoch,value
1580471062.471,8819
1580471072.451,8819
1580471082.452,8819
1580471092.451,8819
1580471102.451,8819
1580471112.452,8819
1580471122.452,8819
1580471132.451,8819
1580471142.452,8819
1580471152.451,8819
1580471162.452,8819
1580471172.451,8819
1580471182.451,8819
1580471192.451,8819
1580471202.451,8819
1580471212.451,8819
1580471222.451,8819
1580471232.452,8819
1580471242.451,8819
1580471252.451,8819
1580471262.451,8819
1580471272.456,8819
1580471282.451,8819
1580471292.452,8819
1580471302.451,8819
1580471312.456,8819
1580471322.452,8819
1580471332.452,8819
1580471342.452,8819
1580471352.452,8819
1580471362.451,8819
1580471372.451,8819
1580471382.451,8819
1580471392.451,8819
1580471402.452,8819
1580471412.452,8819
1580471422.451,8819
1580471432.451,8819
1580471442.451,8819
1580471452.451,8819
1580471462.451,8819
1580471472.452,8819
1580471482.451,8819
1580471492.451,8819
1580471502.451,8819
1580471512.451,8819
1580471522.451,8819
1580471532.451,8819
1580471542.451,8819
1580471552.451,8819
1580471562.451,8819
1580471572.452,8819
1580471582.452,8819
1580471592.452,8819
1580471602.451,8819
1580471612.451,8819
1580471622.451,8819
1580471632.451,8819
1580471642.453,8819
1580471652.451,8819
1580471662.452,8819
1580471672.452,8819
1580471682.451,8819
1580471692.452,8819
1580471702.451,8819
1580471712.451,8819
1580471722.451,8819
1580471732.451,8819
1580471742.451,8819
1580471752.452,8819
1580471762.451,8819
1580471772.451,8819
1580471782.451,8819
1580471792.451,8819
1580471802.451,8819
1580471812.451,8819
1580471822.451,8819
1580471832.451,8819
1580471842.451,8819
1580471852.452,8819
1580471862.451,8819
1580471872.451,8819
1580471882.451,8819
1580471892.451,8820
1580471902.451,8820
1580471912.451,8820
1580471922.451,8820
1580471932.451,8820
1580471942.451,8820
1580471952.453,8820
1580471962.452,8820
1580471972.451,8820
1580471982.451,8820
1580471992.452,8820
1580472002.451,8820
1580472012.452,8820
1580472022.451,8820
1580472032.451,8820
1580472042.451,8820
1580472052.452,8821
1580472062.451,8821
1580472072.451,8821
1580472082.451,8821
1580472092.451,8821
1580472102.452,8821
1580472112.451,8821
1580472122.452,8821
1580472132.451,8821
1580472142.454,8821
1580472152.451,8821
1580472162.451,8821
1580472172.451,8821
1580472182.451,8821
1580472192.451,8821
1580472202.451,8821
1580472212.452,8821
1580472222.451,8821
1580472232.453,8821
1580472242.451,8821
1580472252.451,8821
1580472262.453,8821
1580472272.452,8821
1580472282.451,8821
1580472292.451,8821
1580472302.451,8821
1580472312.451,8821
1580472322.451,8821
1580472332.451,8821
1580472342.451,8821
1580472352.452,8821
1580472362.451,8821
1580472372.451,8821
1580472382.452,8821
1580472392.453,8821
1580472402.451,8821
1580472412.452,8821
1580472422.452,8821
1580472432.451,8821
1580472442.453,8821
1580472452.451,8821
1580472462.451,8821
1580472472.454,8821
1580472482.451,8821
1580472492.451,8821
1580472502.451,8821
1580472512.451,8821
1580472522.451,8821
1580472532.451,8821
1580472542.451,8821
1580472552.451,8821
1580472562.451,8821
1580472572.451,8821
1580472582.451,8821
1580472592.451,8821
1580472602.451,8821
1580472612.451,8821
1580472622.451,8821
