epoch,value
1580832587.154,0
1580832597.153,0
1580832607.153,0
1580832617.153,0
1580832627.153,0
1580832637.153,0
1580832647.153,0
1580832657.153,0
1580832667.153,0
1580832677.153,0
1580832687.153,0
1580832697.153,0
1580832707.153,0
1580832717.153,0
1580832727.153,0
1580832737.153,0
1580832747.153,0
1580832757.153,1
1580832767.153,1
1580832777.153,1
1580832787.153,1
1580832797.154,1
1580832807.153,1
1580832817.153,1
1580832827.153,1
1580832837.153,1
1580832847.153,1
1580832857.153,1
1580832867.153,1
1580832877.158,1
1580832887.153,1
1580832897.153,1
1580832907.153,1
1580832917.153,1
1580832927.158,2
1580832937.153,2
1580832947.154,2
1580832957.153,2
1580832967.153,2
1580832977.153,2
1580832987.153,3
1580832997.153,3
1580833007.153,3
1580833017.154,3
1580833027.153,3
1580833037.153,3
1580833047.153,3
1580833057.153,3
1580833067.153,3
1580833077.153,3
1580833087.153,3
1580833097.153,3
1580833107.153,3
1580833117.153,3
1580833127.153,3
1580833137.153,3
1580833147.153,3
1580833157.154,4
1580833167.153,4
1580833177.153,4
1580833187.153,4
1580833197.153,4
1580833207.153,4
1580833217.153,4
1580833227.154,4
1580833237.153,4
1580833247.153,4
1580833257.153,4
1580833267.153,4
1580833277.153,4
1580833287.153,4
1580833297.153,4
1580833307.153,4
1580833317.153,4
1580833327.153,4
1580833337.153,4
1580833347.153,4
1580833357.153,5
1580833367.158,5
1580833377.153,5
1580833387.154,5
1580833397.153,5
1580833407.153,5
1580833417.153,5
1580833427.153,5
1580833437.153,5
1580833447.153,5
1580833457.153,5
1580833467.153,5
1580833477.153,6
1580833487.157,6
1580833497.153,6
1580833507.153,6
1580833517.153,6
1580833527.158,6
1580833537.153,6
1580833547.153,6
1580833557.153,6
1580833567.153,6
1580833577.153,6
1580833587.153,6
1580833597.153,6
1580833607.153,6
1580833617.153,6
1580833627.153,6
1580833637.153,6
1580833647.153,6
1580833657.153,7
1580833667.153,7
1580833677.153,7
1580833687.153,7
1580833697.153,7
1580833707.153,7
1580833717.153,7
1580833727.155,7
1580833737.153,7
1580833747.153,7
1580833757.153,7
1580833767.154,7
1580833777.153,7
1580833787.153,7
1580833797.153,7
1580833807.153,7
1580833817.153,7
1580833827.153,7
1580833837.153,7
1580833847.153,7
1580833857.153,7
1580833867.153,7
1580833877.158,8
1580833887.153,8
1580833897.153,8
1580833907.153,8
1580833917.153,8
1580833927.153,8
1580833937.153,8
1580833947.153,8
1580833957.153,8
1580833967.153,8
1580833977.153,8
1580833987.153,8
1580833997.153,8
1580834007.153,8
1580834017.153,8
1580834027.153,8
1580834037.153,9
1580834047.153,9
1580834057.153,9
1580834067.156,9
1580834077.153,9
1580834087.153,9
1580834097.153,9
1580834107.153,9
1580834117.153,9
1580834127.153,9
1580834137.153,9
1580834147.153,9
1580834157.153,9
1580834167.153,9
1580834177.153,10
1580834187.153,10
1580834197.153,10
1580834207.153,10
1580834217.153,10
1580834227.153,10
1580834237.153,10
1580834247.153,10
1580834257.153,10
1580834267.153,10
1580834277.158,10
1580834287.153,10
1580834297.153,11
1580834307.153,11
1580834317.153,11
1580834327.153,11
1580834337.153,11
1580834347.153,11
1580834357.153,11
1580834367.153,11
1580834377.153,11
1580834387.153,11
1580834397.153,11
1580834407.153,11
1580834417.153,12
1580834427.153,12
1580834437.153,12
1580834447.153,12
1580834457.153,12
1580834467.153,12
1580834477.153,12
1580834487.153,12
1580834497.153,12
1580834507.153,12
1580834517.153,12
1580834527.153,12
1580834537.153,12
1580834547.153,12
1580834557.153,12
1580834567.153,12
1580834577.153,12
1580834587.153,12
1580834597.153,13
1580834607.153,13
1580834617.153,13
1580834627.153,13
1580834637.153,13
1580834647.153,13
1580834657.153,13
1580834667.153,13
1580834677.153,13
1580834687.153,13
1580834697.153,13
1580834707.153,13
1580834717.153,13
1580834727.153,13
1580834737.158,13
1580834747.154,13
1580834757.153,13
1580834767.153,13
1580834777.153,13
1580834787.153,13
1580834797.153,14
1580834807.153,14
1580834817.153,14
1580834827.153,14
1580834837.153,14
1580834847.153,14
1580834857.153,14
1580834867.153,14
1580834877.153,14
1580834887.153,14
1580834897.153,14
1580834907.153,14
1580834917.153,14
1580834927.153,14
1580834937.153,14
1580834947.153,14
1580834957.153,14
1580834967.153,14
1580834977.153,14
1580834987.153,14
1580834997.153,14
1580835017.153,14
1580835027.153,14
1580835037.153,14
1580835047.153,14
1580835057.153,14
1580835067.153,15
1580835077.153,15
1580835087.153,15
1580835097.153,15
