epoch,value
1580209399.924,0
1580209409.925,0
1580209419.924,0
1580209429.925,0
1580209439.924,0
1580209449.924,0
1580209459.924,0
1580209469.924,0
1580209479.924,0
1580209489.924,0
1580209499.925,1
1580209509.924,1
1580209519.924,1
1580209529.924,1
1580209539.924,1
1580209549.924,1
1580209559.924,1
1580209579.924,2
1580209589.924,2
1580209599.924,2
1580209609.924,2
1580209619.924,3
1580209629.924,3
1580209639.924,3
1580209649.924,3
1580209659.924,3
1580209669.924,4
1580209679.924,4
1580209689.924,4
1580209699.924,4
1580209709.924,5
1580209729.924,6
1580209739.924,6
1580209749.924,6
1580209759.929,6
1580209769.924,6
1580209779.924,6
1580209789.924,6
1580209799.924,6
1580209809.924,6
1580209819.929,6
1580209829.924,6
1580209839.924,6
1580209849.924,6
1580209859.924,7
1580209869.925,7
1580209879.924,7
1580209889.924,7
1580209899.924,7
1580209909.924,7
1580209919.924,7
1580209929.924,7
1580209939.924,7
1580209949.924,7
1580209959.924,8
1580209969.924,8
1580209979.924,8
1580209989.924,8
1580209999.924,8
1580210009.924,8
1580210019.924,8
1580210029.924,8
1580210039.924,8
1580210049.924,8
1580210059.924,8
1580210069.924,8
1580210079.924,8
1580210089.924,9
1580210099.924,9
1580210109.924,9
1580210119.924,9
1580210129.924,9
1580210139.924,9
1580210149.924,9
1580210159.924,9
1580210169.924,9
1580210179.924,9
1580210189.924,9
1580210199.924,9
1580210209.924,9
1580210219.924,9
1580210229.924,9
1580210239.925,9
1580210249.924,10
1580210259.924,10
1580210269.924,10
1580210279.924,10
1580210289.924,10
1580210299.924,10
1580210309.924,10
1580210319.924,10
1580210329.924,10
1580210339.925,10
1580210349.924,10
1580210359.924,10
1580210369.924,10
1580210379.924,10
1580210389.924,10
1580210399.924,10
1580210409.924,11
1580210419.924,11
1580210429.924,11
1580210439.924,11
1580210449.926,11
1580210459.924,11
1580210469.924,11
1580210479.924,11
1580210489.924,11
1580210499.924,11
1580210509.924,11
1580210519.924,11
1580210529.924,11
1580210539.924,11
1580210549.924,11
1580210559.924,11
1580210569.924,11
1580210579.929,12
1580210589.924,12
1580210599.924,12
1580210609.924,12
1580210619.924,12
1580210629.924,12
1580210639.924,12
1580210649.924,12
1580210659.924,12
1580210669.924,12
1580210679.924,12
1580210689.924,12
1580210699.928,12
1580210709.924,12
1580210719.924,13
1580210729.924,13
1580210739.924,13
1580210749.924,13
1580210759.925,13
1580210769.924,13
1580210779.924,13
1580210789.924,13
1580210799.924,13
1580210809.924,13
1580210819.924,13
1580210829.924,13
1580210839.924,13
1580210849.924,13
1580210859.926,13
1580210879.924,13
1580210889.928,13
1580210899.924,13
1580210909.924,13
1580210919.924,13
1580210929.924,14
1580210939.924,14
1580210949.924,14
1580210959.924,14
1580210969.924,14
1580210979.924,14
1580210989.924,14
1580210999.924,14
1580211009.924,14
1580211019.924,14
1580211029.925,14
1580211039.924,14
1580211049.924,14
1580211059.924,14
1580211069.924,14
1580211079.924,14
1580211089.924,15
1580211099.924,15
1580211109.924,15
1580211119.924,15
1580211129.924,15
1580211139.924,15
1580211149.924,15
1580211159.924,15
1580211169.924,15
1580211179.924,15
1580211189.924,15
1580211199.924,15
1580211209.924,15
1580211219.924,15
1580211229.924,15
1580211239.924,15
1580211249.924,15
1580211259.924,15
1580211269.924,15
1580211279.924,15
1580211289.924,15
1580211299.924,15
1580211309.929,15
1580211319.924,15
1580211329.925,15
1580211339.924,15
1580211349.924,15
1580211359.924,15
1580211369.924,15
1580211379.924,15
1580211389.924,15
1580211399.924,16
1580211409.924,16
1580211419.924,16
1580211429.924,16
1580211439.924,16
1580211449.924,16
1580211459.924,16
1580211469.924,16
1580211479.924,16
1580211489.924,16
1580211499.924,16
1580211509.924,16
1580211519.924,16
1580211529.924,17
1580211539.924,17
1580211549.924,17
1580211559.929,17
1580211569.924,17
1580211579.924,17
1580211589.924,17
1580211599.924,17
1580211609.925,17
1580211619.924,17
1580211629.924,17
1580211639.924,17
1580211649.924,17
1580211659.924,18
1580211669.924,18
1580211679.924,18
1580211689.924,18
1580211699.924,18
1580211709.924,18
1580211719.924,18
1580211729.924,18
1580211739.924,18
1580211749.924,18
1580211759.924,18
1580211769.924,18
1580211779.924,18
1580211789.924,18
1580211799.924,18
1580211809.924,18
1580211819.924,18
1580211829.924,19
1580211839.924,19
1580211849.924,19
1580211859.924,19
1580211869.924,19
1580211879.924,19
1580211889.924,19
1580211899.924,19
1580211909.929,19
1580211919.924,19
1580211929.924,19
1580211939.924,19
1580211949.924,19
1580211959.924,19
1580211969.924,19
1580211979.924,19
1580211989.924,19
1580211999.924,20
1580212009.924,20
1580212019.924,20
1580212029.924,20
1580212039.924,20
1580212049.924,20
1580212059.924,20
1580212069.924,20
1580212079.924,20
1580212089.924,20
1580212099.924,20
1580212109.924,20
1580212119.924,20
1580212129.924,21
1580212139.924,21
1580212149.924,21
