epoch,value
1580481698.458,412046
1580481708.440,412046
1580481718.439,412046
1580481728.438,412046
1580481738.444,412047
1580481748.438,412048
1580481758.440,412048
1580481768.438,412048
1580481778.438,412049
1580481788.439,412049
1580481798.438,412049
1580481808.438,412049
1580481818.438,412050
1580481828.438,412050
1580481838.438,412050
1580481848.438,412050
1580481858.438,412053
1580481868.438,412054
1580481878.440,412054
1580481888.438,412054
1580481898.438,412056
1580481908.438,412057
1580481918.439,412057
1580481928.438,412058
1580481938.439,412058
1580481948.440,412058
1580481958.439,412058
1580481968.438,412060
1580481978.439,412060
1580481988.438,412060
1580481998.439,412060
1580482008.438,412060
1580482018.438,412060
1580482028.438,412060
1580482038.438,412061
1580482048.438,412062
1580482058.438,412062
1580482068.438,412063
1580482078.438,412063
1580482088.439,412064
1580482098.438,412064
1580482108.438,412064
1580482118.439,412064
1580482128.438,412065
1580482138.438,412066
1580482148.439,412066
1580482158.438,412067
1580482168.438,412068
1580482178.438,412068
1580482188.438,412068
1580482198.438,412069
1580482208.438,412070
1580482218.439,412071
1580482228.438,412071
1580482238.438,412072
1580482248.438,412073
1580482258.438,412073
1580482268.438,412073
1580482278.438,412074
1580482288.438,412075
1580482298.439,412075
1580482308.439,412076
1580482318.438,412076
1580482328.438,412076
1580482338.438,412076
1580482348.439,412078
1580482358.440,412079
1580482368.438,412081
1580482378.438,412081
1580482388.438,412082
1580482398.440,412082
1580482408.439,412082
1580482418.438,412082
1580482428.439,412082
1580482438.440,412083
1580482448.438,412083
1580482458.439,412083
1580482468.441,412083
1580482478.438,412084
1580482488.438,412085
1580482498.438,412085
1580482508.439,412085
1580482518.439,412087
1580482528.438,412089
1580482538.441,412090
1580482548.438,412090
1580482558.438,412092
1580482568.438,412095
1580482578.439,412097
1580482588.439,412098
1580482598.438,412099
1580482608.439,412100
1580482618.438,412100
1580482628.438,412100
1580482638.438,412100
1580482648.439,412100
1580482658.439,412100
1580482668.438,412100
1580482678.439,412100
1580482688.439,412100
1580482698.438,412100
1580482708.438,412102
1580482718.438,412102
1580482728.438,412102
1580482738.438,412102
1580482748.438,412103
1580482758.438,412104
1580482768.441,412106
1580482778.439,412106
1580482788.438,412107
1580482798.439,412107
1580482808.438,412108
1580482818.438,412108
1580482828.441,412108
1580482838.438,412108
1580482848.438,412108
1580482858.438,412108
1580482868.441,412108
1580482878.438,412108
1580482888.439,412109
1580482898.438,412109
1580482908.438,412110
1580482918.439,412110
1580482928.439,412110
1580482938.439,412111
1580482948.438,412111
1580482958.438,412111
1580482968.438,412112
1580482978.439,412112
1580482988.438,412112
1580482998.438,412112
1580483008.438,412113
1580483018.440,412113
1580483028.442,412114
1580483038.438,412114
1580483048.439,412114
1580483058.440,412114
1580483068.438,412114
1580483078.440,412114
1580483088.439,412114
1580483098.438,412115
1580483108.438,412115
1580483118.438,412115
1580483128.439,412115
1580483138.439,412116
1580483148.439,412116
1580483158.438,412116
1580483168.443,412118
1580483178.438,412118
1580483188.438,412118
1580483198.438,412118
1580483208.438,412118
1580483218.438,412119
1580483228.438,412119
1580483238.438,412119
1580483248.438,412120
1580483258.439,412122
