epoch,value
1580692173.512,425034
1580692183.491,425034
1580692193.491,425034
1580692203.492,425034
1580692213.491,425034
1580692223.491,425034
1580692233.491,425068
1580692243.491,425108
1580692253.491,425144
1580692263.491,425188
1580692273.491,425228
1580692283.492,425267
1580692293.491,425318
1580692303.491,425351
1580692313.492,425392
1580692323.491,425438
1580692333.491,425476
1580692343.493,425523
1580692353.491,425569
1580692363.491,425607
1580692373.491,425649
1580692383.491,425702
1580692393.492,425737
1580692403.491,425779
1580692413.491,425818
1580692423.491,425861
1580692433.491,425906
1580692443.491,425946
1580692453.491,425981
1580692463.491,426011
1580692473.491,426042
1580692483.491,426080
1580692493.491,426113
1580692503.491,426154
1580692513.491,426191
1580692523.491,426228
1580692533.492,426262
1580692543.491,426308
1580692553.491,426352
1580692563.491,426392
1580692573.491,426436
1580692583.492,426477
1580692593.494,426515
1580692603.491,426572
1580692613.491,426609
1580692623.491,426649
1580692633.491,426688
1580692643.491,426732
1580692653.492,426779
1580692663.491,426816
1580692673.491,426857
1580692683.491,426897
1580692693.492,426942
1580692703.491,426994
1580692713.491,427037
1580692723.495,427084
1580692733.491,427131
1580692743.491,427180
1580692753.492,427218
1580692763.493,427265
1580692773.491,427308
1580692783.491,427349
1580692793.491,427388
1580692803.491,427426
1580692813.491,427462
1580692823.491,427504
1580692833.492,427536
1580692843.492,427568
1580692853.491,427609
1580692863.491,427648
1580692873.491,427690
1580692883.491,427730
1580692893.491,427774
1580692903.491,427812
1580692913.491,427860
1580692923.491,427899
1580692933.492,427941
1580692943.491,427974
1580692953.492,428018
1580692963.491,428062
1580692973.491,428100
1580692983.491,428148
1580692993.491,428184
1580693003.491,428231
1580693013.491,428268
1580693023.493,428311
1580693033.491,428360
1580693043.493,428410
1580693053.492,428450
1580693063.491,428490
1580693073.491,428536
1580693083.491,428572
1580693093.491,428616
1580693103.491,428652
1580693113.491,428714
1580693123.492,428761
1580693133.491,428802
1580693143.491,428841
1580693153.491,428881
1580693163.492,428923
1580693173.494,428959
1580693183.494,429000
1580693193.493,429040
1580693203.492,429078
1580693213.491,429118
1580693223.491,429159
1580693233.491,429205
1580693243.491,429264
1580693253.492,429315
1580693263.491,429368
1580693273.492,429410
1580693283.491,429463
1580693293.492,429509
1580693303.491,429567
1580693313.491,429625
1580693323.491,429671
1580693333.491,429718
1580693343.491,429760
1580693353.494,429793
1580693363.491,429836
1580693373.491,429880
1580693383.491,429924
1580693393.491,429972
1580693403.492,430024
1580693413.491,430054
1580693423.491,430092
1580693433.492,430125
1580693443.495,430164
1580693453.492,430215
1580693463.491,430241
1580693473.493,430282
1580693483.491,430324
1580693493.491,430357
1580693503.491,430399
1580693513.492,430450
1580693523.491,430494
1580693533.492,430543
1580693543.491,430589
1580693553.491,430634
1580693563.491,430666
1580693573.492,430694
1580693583.491,430735
1580693593.491,430770
1580693603.491,430813
1580693613.494,430855
1580693623.491,430900
1580693633.491,430938
1580693643.491,430988
1580693653.491,431025
1580693663.491,431068
1580693673.493,431108
1580693683.492,431145
1580693693.491,431179
1580693703.493,431226
1580693713.491,431276
1580693723.491,431312
1580693733.491,431346
1580693743.494,431386
1580693753.491,431428
1580693763.493,431470
1580693773.491,431507
1580693783.491,431551
1580693793.491,431593
1580693803.495,431640
1580693813.491,431690
1580693823.491,431732
1580693833.492,431769
1580693843.491,431818
1580693853.491,431855
1580693863.491,431893
1580693873.491,431943
1580693883.491,431983
1580693893.491,432029
1580693903.491,432082
1580693913.495,432124
1580693923.491,432173
1580693933.491,432227
1580693943.491,432272
1580693953.491,432301
1580693963.491,432351
1580693973.495,432388
1580693983.491,432434
1580693993.492,432477
1580694003.491,432525
1580694013.493,432577
1580694023.492,432619
1580694033.491,432664
1580694043.494,432711
1580694053.495,432754
1580694063.491,432796
1580694073.492,432831
1580694083.494,432871
1580694093.491,432910
1580694103.491,432953
1580694113.491,432996
1580694123.491,433040
1580694133.491,433086
1580694143.492,433124
1580694153.491,433167
1580694163.491,433210
1580694173.491,433257
1580694183.491,433304
1580694193.491,433350
1580694203.491,433389
1580694213.492,433430
1580694223.492,433470
1580694233.491,433514
1580694243.491,433554
1580694253.491,433601
1580694263.491,433637
1580694273.492,433677
1580694283.491,433726
1580694293.491,433766
1580694303.491,433804
1580694313.493,433846
1580694323.492,433884
1580694333.491,433923
1580694343.491,433959
1580694353.491,433998
1580694363.491,434034
1580694373.491,434076
1580694383.491,434110
1580694393.492,434152
1580694403.492,434194
1580694413.491,434241
1580694423.491,434291
1580694433.492,434332
1580694443.491,434376
1580694453.492,434415
1580694463.492,434458
1580694473.491,434502
1580694483.491,434548
1580694493.492,434585
1580694503.491,434624
1580694513.491,434669
1580694523.492,434714
1580694533.491,434757
1580694543.491,434798
1580694553.491,434848
1580694563.491,434880
1580694573.491,434881
1580694583.491,434881
1580694593.491,434882
1580694603.491,434882
1580694613.491,434883
1580694623.491,434883
1580694633.491,434883
1580694643.491,434883
1580694653.491,434885
1580694663.494,434885
1580694673.491,434885
1580694683.491,434885
1580694693.491,434886
1580694703.491,434886
1580694713.492,434886
1580694723.491,434887
1580694733.491,434888
1580694743.491,434888
1580694753.492,434888
1580694763.492,434888
1580694773.491,434889
1580694783.491,434889
1580694793.491,434889
1580694803.492,434891
1580694813.493,434891
1580694823.492,434891
1580694833.492,434891
1580694843.492,434892
1580694853.491,434892
1580694863.491,434892
1580694873.491,434893
1580694883.491,434893
1580694893.491,434894
1580694903.491,434894
1580694913.491,434894
1580694923.491,434894
1580694933.492,434894
1580694943.492,434896
1580694953.491,434896
1580694963.491,434897
1580694973.492,434897
1580694983.491,434897
1580694993.493,434899
1580695003.491,434899
1580695013.491,434899
1580695023.491,434899
1580695033.491,434900
1580695043.491,434901
1580695053.491,434902
1580695063.491,434902
1580695073.491,434902
1580695083.492,434902
1580695093.491,434902
1580695103.491,434902
1580695113.491,434902
1580695123.491,434902
1580695133.491,434902
1580695143.491,434902
1580695153.491,434904
1580695163.492,434904
1580695173.491,434904
1580695183.492,434904
1580695193.491,434904
1580695203.491,434904
1580695213.491,434904
1580695223.491,434905
1580695233.491,434906
1580695243.492,434906
1580695253.491,434906
1580695263.491,434906
1580695273.491,434907
1580695283.491,434907
1580695293.491,434907
1580695303.491,434907
1580695313.491,434909
1580695323.491,434909
1580695333.491,434909
1580695343.491,434910
1580695353.491,434910
1580695363.491,434910
1580695373.492,434910
1580695383.491,434910
1580695393.492,434910
1580695403.491,434911
1580695413.494,434911
1580695423.491,434911
1580695433.493,434912
1580695443.491,434912
1580695453.491,434912
1580695463.491,434913
1580695473.491,434914
1580695483.491,434914
1580695493.493,434915
1580695503.491,434915
1580695513.491,434915
1580695523.492,434915
1580695533.491,434915
1580695543.492,434916
1580695553.491,434916
1580695563.493,434916
1580695573.492,434916
1580695583.491,434916
1580695593.491,434917
1580695603.492,434917
1580695613.491,434917
1580695623.491,434917
1580695633.491,434918
1580695643.492,434918
1580695653.491,434919
1580695663.491,434920
1580695673.491,434920
1580695683.492,434920
1580695693.493,434920
1580695703.492,434920
1580695713.491,434920
1580695723.491,434920
1580695733.491,434920
1580695743.491,434920
1580695753.491,434920
1580695763.491,434920
1580695773.491,434920
1580695783.491,434921
1580695793.492,434921
1580695803.493,434921
1580695813.492,434921
1580695823.491,434921
1580695833.491,434922
1580695843.491,434922
1580695853.491,434922
1580695863.491,434923
1580695873.491,434924
1580695883.491,434925
1580695893.491,434926
1580695903.491,434926
1580695913.491,434926
1580695923.491,434927
1580695933.492,434927
1580695943.493,434927
1580695953.491,434928
1580695963.491,434928
1580695973.491,434928
1580695983.491,434928
1580695993.491,434930
1580696003.491,434930
1580696013.492,434931
1580696023.491,434932
1580696033.491,434932
1580696043.491,434932
1580696053.491,434932
1580696063.491,434932
1580696073.496,434933
1580696083.491,434933
1580696093.491,434933
1580696103.491,434934
1580696113.494,434935
1580696123.492,434935
1580696133.491,434935
1580696143.491,434935
1580696153.491,434937
1580696163.491,434937
1580696173.491,434937
1580696183.491,434937
1580696193.492,434937
1580696203.491,434938
1580696213.491,434938
1580696223.491,434938
1580696233.491,434938
1580696243.491,434938
1580696253.493,434938
1580696263.491,434939
1580696273.491,434939
1580696283.491,434939
1580696293.491,434940
1580696303.491,434940
1580696313.491,434941
1580696323.492,434941
1580696333.492,434941
1580696343.491,434941
1580696353.491,434941
1580696363.491,434941
1580696373.491,434942
1580696383.491,434942
1580696393.491,434942
1580696403.491,434942
1580696413.491,434942
1580696423.492,434942
1580696433.494,434942
1580696443.491,434942
1580696453.491,434943
1580696463.491,434943
1580696473.491,434943
1580696483.491,434943
1580696493.491,434944
1580696503.491,434945
1580696513.491,434946
1580696523.491,434946
1580696533.491,434946
1580696543.492,434948
1580696553.491,434948
1580696563.491,434949
1580696573.491,434949
1580696583.491,434949
1580696593.492,434949
1580696603.492,434949
1580696613.491,434950
1580696623.492,434952
1580696633.491,434952
1580696643.491,434952
1580696653.493,434953
1580696663.493,434954
1580696673.491,434954
1580696683.493,434954
1580696693.491,434954
1580696703.492,434956
1580696713.491,434956
1580696723.491,434956
1580696733.491,434956
1580696743.491,434957
1580696753.491,434957
1580696763.491,434957
1580696773.491,434957
1580696783.494,434959
1580696793.492,434959
1580696803.491,434960
1580696813.492,434960
1580696823.491,434961
1580696833.491,434961
1580696843.491,434961
1580696853.491,434961
1580696863.491,434961
1580696873.491,434962
1580696883.491,434962
1580696893.491,434962
1580696903.491,434962
1580696913.492,434962
1580696923.491,434962
1580696933.491,434964
1580696943.491,434965
1580696953.491,434966
1580696963.491,434966
1580696973.491,434966
1580696983.492,434967
1580696993.491,434967
1580697003.492,434967
1580697013.493,434967
1580697023.491,434968
1580697033.491,434968
1580697043.491,434971
1580697053.491,434971
1580697063.492,434971
1580697073.491,434971
1580697083.491,434972
1580697093.491,434972
1580697103.491,434972
1580697113.491,434972
1580697123.494,434972
1580697133.491,434972
1580697143.491,434972
1580697153.491,434972
1580697163.492,434973
1580697173.493,434973
1580697183.491,434973
1580697193.491,434973
1580697203.491,434973
1580697213.493,434974
1580697223.491,434974
1580697233.492,434974
1580697243.492,434974
1580697253.491,434976
1580697263.493,434976
1580697273.491,434976
1580697283.491,434976
1580697293.491,434978
1580697303.491,434979
1580697313.491,434979
1580697323.492,434980
1580697333.491,434982
1580697343.493,434982
1580697353.491,434982
1580697363.491,434983
1580697373.491,434984
1580697383.491,434984
1580697393.491,434984
1580697403.491,434985
1580697413.491,434986
1580697423.491,434986
1580697433.493,434986
1580697443.491,434986
1580697453.492,434987
1580697463.492,434987
1580697473.491,434988
1580697483.491,434988
1580697493.492,434988
1580697503.491,434988
1580697513.491,434988
1580697523.494,434988
1580697533.491,434989
1580697543.492,434989
1580697553.491,434989
1580697563.491,434990
1580697573.491,434990
1580697583.491,434990
1580697593.491,434991
1580697603.491,434993
1580697613.491,434993
1580697623.492,434994
1580697633.491,434994
1580697643.492,434995
1580697653.492,434995
1580697663.494,434995
1580697673.492,434997
1580697683.493,434997
1580697693.491,434998
1580697703.492,434998
1580697713.491,435000
1580697723.492,435000
1580697733.491,435002
1580697743.491,435003
1580697753.491,435004
1580697763.492,435006
1580697773.491,435006
1580697783.491,435008
1580697793.491,435008
1580697803.491,435008
1580697813.491,435008
1580697823.493,435008
1580697833.491,435008
1580697843.491,435008
1580697853.491,435009
1580697863.491,435010
1580697873.492,435010
1580697883.491,435010
1580697893.491,435010
1580697903.491,435011
1580697913.491,435011
1580697923.493,435011
1580697933.491,435011
1580697943.491,435013
1580697953.494,435014
1580697963.492,435014
1580697973.491,435014
1580697983.492,435015
1580697993.492,435015
1580698003.491,435015
1580698013.491,435015
1580698023.491,435017
1580698033.491,435018
1580698043.492,435018
1580698053.493,435018
1580698063.491,435018
1580698073.491,435018
1580698083.491,435018
1580698093.491,435018
1580698103.491,435019
1580698113.492,435019
1580698123.491,435019
1580698133.491,435019
1580698143.491,435019
1580698153.491,435019
1580698163.491,435019
1580698173.491,435019
1580698183.491,435019
1580698193.491,435019
1580698203.491,435019
1580698213.493,435019
1580698223.491,435019
1580698233.491,435019
1580698243.491,435019
1580698253.491,435020
1580698263.492,435020
1580698273.491,435020
1580698283.493,435020
1580698293.491,435020
1580698303.491,435020
1580698313.491,435022
1580698323.492,435022
1580698333.492,435022
1580698343.491,435022
1580698353.491,435023
1580698363.491,435024
1580698373.491,435024
1580698383.492,435024
1580698393.491,435024
1580698403.491,435024
1580698413.491,435024
1580698423.491,435024
1580698433.492,435024
1580698443.491,435026
1580698453.491,435026
1580698463.493,435026
1580698473.491,435026
1580698483.492,435028
1580698493.494,435028
1580698503.492,435029
1580698513.491,435029
1580698523.491,435029
1580698533.491,435030
1580698543.491,435031
1580698553.491,435031
1580698563.493,435031
1580698573.491,435032
1580698583.493,435032
1580698593.491,435032
1580698603.495,435032
1580698613.491,435033
1580698623.491,435034
1580698633.491,435034
1580698643.493,435034
1580698653.491,435034
1580698663.491,435034
1580698673.491,435034
1580698683.491,435034
1580698693.491,435034
1580698703.491,435034
1580698713.491,435034
1580698723.491,435034
1580698733.491,435035
1580698743.491,435035
1580698753.491,435035
1580698763.491,435036
1580698773.491,435036
1580698783.493,435036
1580698793.491,435036
1580698803.491,435036
1580698813.491,435037
1580698823.491,435037
1580698833.491,435037
1580698843.491,435038
1580698853.491,435038
1580698863.491,435038
1580698873.491,435038
1580698883.491,435039
1580698893.493,435039
1580698903.491,435039
1580698913.492,435039
1580698923.491,435040
1580698933.491,435040
1580698943.492,435041
1580698953.491,435041
1580698963.491,435042
1580698973.491,435042
1580698983.491,435043
1580698993.491,435043
1580699003.491,435045
1580699013.491,435046
1580699023.491,435046
1580699033.491,435047
1580699043.491,435047
1580699053.491,435047
1580699063.491,435047
1580699073.491,435047
1580699083.491,435048
1580699093.492,435048
1580699103.491,435049
1580699113.491,435049
1580699123.491,435050
1580699133.491,435050
1580699143.491,435050
1580699153.491,435051
1580699163.491,435053
1580699173.493,435054
1580699183.491,435054
1580699193.491,435054
1580699203.492,435056
1580699213.492,435057
1580699223.492,435057
1580699233.491,435058
1580699243.493,435058
1580699253.492,435060
1580699263.491,435060
1580699273.491,435060
1580699283.493,435060
1580699293.491,435061
1580699303.492,435061
1580699313.491,435062
1580699323.491,435062
1580699333.491,435062
1580699343.492,435062
1580699353.491,435063
1580699363.491,435064
1580699373.491,435064
1580699383.491,435064
1580699393.491,435065
1580699403.492,435065
1580699413.491,435066
1580699423.491,435066
1580699433.491,435067
1580699443.491,435067
1580699453.491,435067
1580699463.491,435068
1580699473.491,435068
1580699483.491,435069
1580699493.492,435069
1580699503.491,435069
1580699513.493,435069
1580699523.491,435070
1580699533.493,435072
1580699543.491,435073
1580699553.491,435074
1580699563.491,435076
1580699573.491,435076
1580699583.491,435077
1580699593.493,435078
1580699603.491,435081
1580699613.491,435081
1580699623.491,435081
1580699633.493,435083
1580699643.491,435086
1580699653.491,435087
1580699663.491,435090
1580699673.491,435092
1580699683.492,435094
1580699693.491,435096
1580699703.491,435099
1580699713.492,435102
1580699723.491,435103
1580699733.491,435106
1580699743.491,435108
1580699753.492,435110
1580699763.493,435113
1580699773.491,435115
1580699783.491,435118
1580699793.491,435120
1580699803.491,435121
1580699813.491,435123
1580699823.491,435126
1580699833.492,435129
1580699843.491,435132
1580699853.492,435134
1580699863.493,435136
1580699873.492,435137
1580699883.493,435140
1580699893.491,435141
1580699903.491,435142
1580699913.493,435144
1580699923.491,435146
1580699933.491,435148
1580699943.491,435149
1580699953.491,435151
1580699963.491,435152
1580699973.491,435154
1580699983.491,435158
1580699993.491,435159
1580700003.493,435160
1580700013.492,435160
1580700023.491,435162
1580700033.491,435164
1580700043.491,435168
1580700053.492,435169
1580700063.493,435171
1580700073.491,435172
1580700083.491,435173
1580700093.491,435174
1580700103.491,435174
1580700113.491,435176
1580700123.491,435176
1580700133.491,435176
1580700143.492,435181
1580700153.491,435181
1580700163.491,435182
1580700173.491,435183
1580700183.491,435184
1580700193.491,435184
1580700203.491,435185
1580700213.491,435188
