epoch,value
1579808633.674,0
1579808643.674,0
1579808653.674,0
1579808663.674,0
1579808673.674,0
1579808683.674,1
1579808693.674,4
1579808703.674,13
1579808713.674,24
1579808723.674,39
1579808733.674,61
1579808743.674,64
1579808753.674,73
1579808763.674,93
1579808773.674,110
1579808783.674,119
1579808793.674,123
1579808803.674,129
1579808813.674,133
1579808823.674,142
1579808833.674,147
1579808843.674,152
1579808853.674,154
1579808863.674,158
1579808873.674,171
1579808883.674,174
1579808893.674,177
1579808903.674,181
1579808913.674,189
1579808923.674,192
1579808933.674,196
1579808943.674,206
1579808953.674,211
1579808963.674,214
1579808973.674,214
1579808983.674,214
1579808993.674,214
1579809003.674,214
1579809013.674,214
1579809023.674,214
1579809033.674,214
1579809043.674,214
1579809053.674,214
1579809063.674,214
1579809073.674,214
1579809083.674,214
1579809093.674,214
1579809103.674,214
1579809113.674,214
1579809123.674,214
1579809133.674,214
1579809143.674,214
1579809153.674,214
1579809163.674,214
1579809173.674,214
1579809183.674,215
1579809193.674,215
1579809203.674,215
1579809213.674,215
1579809223.674,215
1579809233.674,215
1579809243.674,215
1579809253.674,215
1579809263.674,215
1579809273.674,215
1579809283.674,215
1579809293.674,215
1579809303.674,215
1579809313.677,215
1579809323.674,215
1579809333.674,215
1579809343.674,215
1579809353.674,215
1579809363.674,215
1579809373.674,215
1579809383.674,215
1579809393.674,215
1579809403.674,215
1579809413.674,215
1579809423.674,215
1579809433.674,215
1579809443.681,215
1579809453.674,215
1579809463.674,215
1579809473.674,215
1579809483.674,215
1579809493.674,215
1579809503.674,215
1579809513.674,215
1579809523.674,215
1579809533.674,215
1579809543.674,215
1579809553.674,215
1579809563.674,215
1579809573.674,215
1579809583.674,215
1579809593.674,215
1579809603.674,215
1579809613.674,215
1579809623.674,215
1579809633.674,215
1579809643.674,215
1579809653.674,215
1579809663.674,215
1579809673.674,215
1579809683.674,215
1579809693.674,215
1579809703.674,215
1579809713.674,215
1579809723.674,216
1579809733.674,216
1579809743.674,216
1579809753.674,216
1579809763.674,216
1579809773.674,216
1579809783.674,216
1579809793.674,216
1579809803.674,216
1579809813.674,216
1579809823.674,216
1579809833.674,216
1579809843.674,216
1579809853.674,216
1579809863.674,216
1579809873.674,216
1579809883.674,216
1579809893.674,216
1579809903.674,216
1579809913.674,216
1579809923.674,216
1579809933.674,217
1579809943.674,217
1579809953.674,217
1579809963.674,217
1579809973.674,217
1579809983.674,217
1579809993.674,217
1579810003.674,217
1579810013.674,217
1579810023.674,217
1579810033.674,217
1579810043.674,217
1579810053.674,217
1579810063.674,217
1579810073.674,217
1579810083.674,217
1579810093.674,217
1579810103.674,217
1579810113.674,217
1579810123.674,217
1579810133.674,217
1579810143.674,217
1579810153.674,217
1579810163.674,217
