epoch,value
1580526126.057,0
1580526136.057,0
1580526146.057,0
1580526156.057,0
1580526166.057,0
1580526176.057,0
1580526186.057,0
1580526196.057,0
1580526206.057,0
1580526216.057,0
1580526226.057,0
1580526236.057,0
1580526246.057,0
1580526256.057,0
1580526276.057,0
1580526286.057,0
1580526296.057,0
1580526306.057,0
1580526316.057,0
1580526326.057,0
1580526336.057,0
1580526346.057,0
1580526356.057,0
1580526376.057,0
1580526386.057,0
1580526396.057,0
1580526406.057,0
1580526416.057,0
1580526426.057,0
1580526436.057,0
1580526446.057,0
1580526456.057,0
1580526466.057,0
1580526476.057,0
1580526486.057,0
1580526496.057,0
1580526506.057,0
1580526516.057,0
1580526526.057,0
1580526536.057,0
1580526546.057,0
1580526556.057,0
1580526566.057,0
1580526576.057,0
1580526596.057,0
1580526606.057,0
1580526616.057,0
1580526626.057,0
1580526636.057,0
1580526646.057,0
1580526656.057,0
1580526666.057,0
1580526676.057,0
1580526686.057,0
1580526696.057,0
1580526706.057,0
1580526716.057,0
1580526726.057,0
1580526736.057,0
1580526746.057,0
1580526756.057,0
1580526766.057,0
1580526776.057,0
1580526786.057,0
1580526796.057,0
1580526806.057,0
1580526816.057,0
1580526826.057,0
1580526836.057,0
1580526846.057,0
1580526856.057,0
1580526866.057,0
1580526876.057,0
1580526886.057,0
1580526896.057,0
1580526906.057,0
1580526916.057,0
1580526926.057,0
1580526936.057,0
1580526946.057,0
1580526956.057,0
1580526966.057,0
1580526976.057,0
1580526986.057,0
1580526996.057,0
1580527006.057,0
1580527016.057,0
1580527026.057,0
1580527036.057,0
1580527046.057,0
1580527056.057,0
1580527066.057,0
1580527076.057,0
1580527086.057,0
1580527096.057,0
1580527106.057,0
1580527116.057,0
1580527126.057,0
1580527136.057,0
1580527146.057,0
1580527156.057,1
1580527166.057,1
1580527176.057,1
1580527186.057,1
1580527196.057,1
1580527206.057,1
1580527216.057,1
1580527226.057,1
1580527236.057,1
1580527246.057,1
1580527256.057,1
1580527266.057,1
1580527276.057,1
1580527286.057,1
1580527296.057,1
1580527306.057,1
1580527316.057,1
1580527326.057,1
1580527336.057,1
1580527346.057,1
1580527366.057,1
1580527376.057,1
1580527386.057,1
1580527396.057,1
1580527406.057,1
1580527426.057,1
1580527436.057,1
1580527446.057,1
1580527456.057,1
1580527466.057,1
1580527476.057,1
1580527486.057,1
1580527496.057,1
1580527506.057,1
1580527516.057,1
1580527526.057,1
1580527536.057,1
1580527546.057,1
1580527556.057,1
1580527566.057,1
1580527576.057,1
1580527596.057,1
1580527606.057,1
1580527616.057,1
1580527626.057,1
1580527636.057,1
1580527646.057,1
1580527656.057,1
1580527666.057,1
1580527676.057,1
1580527686.057,1
1580527696.057,1
1580527706.057,1
1580527716.057,1
1580527726.057,1
1580527736.057,1
1580527746.057,2
1580527756.057,2
1580527766.057,2
1580527776.057,2
1580527786.057,2
1580527796.057,2
1580527806.057,2
1580527816.057,2
1580527826.057,2
1580527836.057,2
1580527846.057,2
1580527856.057,2
1580527866.057,2
1580527876.057,2
1580527886.057,2
1580527896.057,2
1580527906.057,2
1580527916.057,2
1580527926.057,2
1580527936.057,2
1580527946.057,2
1580527956.057,2
1580527966.057,2
1580527976.057,2
1580527986.057,2
1580527996.057,2
1580528006.057,2
1580528016.057,2
1580528026.057,2
1580528036.057,2
1580528046.057,2
1580528056.057,2
1580528066.057,2
1580528076.057,2
1580528086.057,2
1580528096.057,2
1580528106.057,2
1580528116.057,2
1580528126.057,2
1580528136.057,2
1580528146.057,2
1580528156.057,2
1580528166.057,2
1580528176.057,2
1580528186.057,2
1580528196.057,2
1580528206.057,2
1580528216.057,2
1580528226.057,2
1580528236.057,2
1580528246.057,2
1580528256.057,2
1580528266.057,2
1580528276.057,2
1580528286.057,2
1580528296.057,2
1580528306.057,2
1580528316.057,2
1580528326.057,2
1580528336.057,2
1580528346.057,2
1580528356.057,2
1580528366.057,2
1580528376.057,2
1580528386.057,2
1580528396.057,2
1580528406.057,2
1580528416.057,2
1580528426.057,2
1580528436.057,2
1580528446.057,2
1580528456.057,2
1580528466.057,2
1580528476.057,2
1580528486.057,2
1580528496.057,2
1580528506.057,2
1580528516.057,2
1580528526.057,2
1580528536.057,2
1580528546.057,2
1580528556.057,2
1580528566.057,2
1580528576.057,2
1580528586.057,2
1580528596.057,3
1580528606.057,3
1580528616.057,3
1580528626.057,3
1580528636.057,3
1580528646.057,3
1580528656.057,3
1580528666.057,3
1580528676.057,3
1580528686.057,3
1580528696.057,3
1580528706.057,3
1580528716.057,3
1580528726.057,3
1580528736.057,3
1580528746.057,3
1580528756.057,3
1580528766.057,3
1580528776.057,3
1580528786.057,3
1580528796.057,3
1580528806.057,3
1580528816.057,3
1580528826.057,3
1580528846.057,3
1580528856.057,3
1580528866.057,3
1580528876.057,3
1580528886.057,3
1580528896.057,3
1580528906.057,3
1580528916.057,3
1580528926.057,3
1580528936.057,3
1580528946.057,3
1580528956.057,3
1580528966.057,3
1580528976.057,3
1580528986.057,3
1580528996.057,3
1580529006.057,3
1580529016.057,3
1580529026.057,3
1580529036.057,3
1580529046.057,3
1580529066.057,3
1580529086.057,3
1580529096.057,3
1580529106.057,3
1580529116.057,3
1580529126.057,3
1580529136.057,3
1580529146.057,3
1580529156.057,3
1580529166.057,3
1580529176.057,3
1580529186.057,3
1580529206.057,3
1580529216.057,3
1580529226.065,3
1580529236.057,3
1580529246.057,3
1580529256.057,3
1580529276.057,4
1580529286.057,4
1580529296.057,4
1580529306.057,4
1580529316.057,4
1580529326.057,4
1580529336.057,4
1580529346.057,4
1580529356.057,4
1580529366.057,4
1580529376.057,4
1580529386.057,4
1580529396.057,4
1580529406.057,4
1580529416.057,4
1580529426.057,4
1580529436.057,4
1580529446.057,4
1580529456.057,4
1580529466.057,4
1580529476.057,4
1580529486.057,4
1580529496.057,4
1580529506.057,4
1580529516.057,4
1580529536.057,4
1580529546.057,4
1580529556.057,4
1580529566.057,4
1580529576.057,4
1580529586.057,4
1580529596.057,4
1580529606.057,4
1580529616.057,4
1580529626.057,4
1580529636.057,4
1580529646.057,4
1580529656.057,4
1580529666.057,4
1580529676.057,4
1580529686.057,4
1580529696.057,4
1580529706.057,4
1580529716.057,4
1580529726.057,4
1580529736.057,4
1580529746.057,4
1580529756.057,4
1580529766.057,4
1580529776.057,4
1580529786.057,4
1580529796.057,4
1580529806.057,4
1580529816.057,4
1580529826.057,4
1580529836.057,4
1580529846.057,4
1580529856.057,4
1580529876.057,4
1580529886.057,4
1580529896.057,4
1580529906.057,4
1580529916.057,4
1580529926.057,4
1580529936.057,4
1580529946.057,4
1580529956.057,4
1580529966.057,4
1580529976.057,4
1580529986.057,4
1580529996.057,4
1580530006.057,4
1580530016.057,4
1580530026.057,4
1580530036.057,4
1580530046.057,4
1580530056.057,4
1580530066.057,4
1580530076.057,4
1580530086.057,4
1580530096.057,4
1580530106.057,4
1580530116.057,4
1580530126.057,4
1580530136.057,4
1580530146.057,4
1580530156.057,4
1580530166.057,4
1580530176.057,4
1580530186.057,4
1580530196.057,4
1580530206.057,4
1580530216.057,4
1580530226.057,4
1580530236.057,4
1580530246.057,4
1580530256.057,4
1580530266.057,4
1580530276.057,5
1580530286.057,5
1580530296.057,5
1580530306.057,5
1580530316.057,5
1580530326.057,5
1580530336.057,5
1580530346.057,5
1580530356.057,5
1580530366.057,5
1580530376.057,5
1580530386.058,5
1580530396.057,5
1580530406.057,5
1580530416.057,5
1580530426.057,5
1580530436.057,5
1580530446.057,5
1580530456.057,5
1580530466.057,5
1580530476.057,5
1580530486.057,5
1580530496.057,5
1580530506.057,5
1580530516.057,5
1580530526.057,5
1580530536.057,5
1580530546.057,5
1580530556.057,5
1580530566.057,5
1580530576.057,5
1580530586.057,5
1580530596.057,5
1580530606.057,5
1580530616.057,5
1580530626.057,5
1580530636.057,5
1580530646.057,5
1580530656.057,5
1580530666.057,5
1580530676.057,5
1580530686.057,5
1580530696.057,5
1580530706.057,5
1580530716.057,5
1580530726.057,5
1580530736.057,5
1580530746.057,5
1580530756.057,5
1580530766.057,5
1580530776.057,5
1580530786.057,5
1580530796.057,5
1580530806.057,5
1580530816.057,5
1580530826.057,5
1580530836.057,5
1580530846.057,5
1580530866.057,5
1580530876.057,5
1580530886.057,5
1580530896.057,5
1580530906.057,5
1580530916.057,5
1580530926.057,5
1580530936.057,5
1580530946.057,5
1580530956.057,5
1580530966.057,5
1580530976.057,5
1580530986.057,5
1580530996.057,5
1580531006.057,5
1580531016.057,5
1580531026.057,5
1580531036.057,5
1580531046.057,5
1580531056.057,5
1580531066.057,5
1580531076.057,5
1580531086.057,5
1580531096.057,6
1580531106.057,6
1580531116.057,6
1580531126.057,6
1580531136.057,6
1580531146.057,6
1580531156.057,6
1580531166.057,6
1580531176.057,6
1580531186.057,6
1580531196.057,6
1580531206.057,6
1580531216.057,6
1580531226.057,6
1580531236.057,6
1580531246.057,6
1580531256.057,6
1580531266.057,6
1580531276.057,6
1580531286.057,6
1580531296.057,6
1580531306.057,6
1580531316.057,6
1580531326.057,6
1580531336.057,6
1580531346.057,6
1580531356.057,6
1580531366.057,6
1580531376.064,6
1580531386.057,6
1580531396.057,6
1580531406.057,6
1580531416.057,6
1580531426.057,6
1580531436.057,6
1580531446.057,6
1580531456.057,6
1580531466.057,6
1580531476.057,6
1580531486.057,6
1580531496.057,6
1580531506.057,6
1580531516.057,6
1580531526.057,6
1580531536.057,6
1580531546.057,6
1580531556.057,6
1580531566.057,6
1580531576.057,6
1580531586.057,6
1580531596.057,6
1580531606.057,6
1580531616.057,6
1580531626.057,6
1580531646.057,6
1580531656.057,6
1580531666.057,6
1580531676.057,6
1580531686.057,6
1580531696.057,6
1580531706.057,6
1580531716.057,6
1580531726.057,6
1580531736.057,6
1580531746.057,6
1580531756.057,6
1580531766.057,6
1580531776.057,7
1580531786.057,7
1580531796.057,7
1580531806.057,7
1580531816.057,7
1580531826.057,7
1580531836.057,7
1580531846.057,7
1580531856.057,7
1580531866.057,7
1580531876.057,7
1580531886.057,7
1580531896.057,7
1580531906.057,7
1580531916.057,7
1580531926.057,7
1580531936.057,7
1580531946.057,7
1580531956.057,7
1580531966.057,7
1580531976.057,7
1580531986.057,7
1580531996.057,7
1580532006.057,7
1580532016.057,7
1580532026.057,7
1580532036.057,7
1580532046.057,7
1580532056.057,7
1580532066.057,7
1580532076.057,7
1580532086.057,7
1580532096.057,7
1580532106.057,7
1580532116.057,7
1580532126.057,7
1580532136.057,7
1580532146.057,7
1580532156.057,7
1580532166.057,7
1580532176.057,7
1580532186.057,7
1580532196.057,7
1580532206.057,7
1580532216.057,7
1580532226.057,7
1580532236.057,7
1580532246.057,7
1580532256.057,7
1580532266.057,7
1580532276.057,7
1580532286.057,7
1580532296.057,7
1580532306.057,7
1580532316.057,7
1580532326.057,7
1580532336.057,7
1580532346.057,7
1580532356.057,7
1580532366.057,7
1580532376.057,7
1580532386.057,7
1580532396.057,7
1580532406.057,7
1580532416.057,7
1580532426.057,7
1580532436.057,7
1580532446.057,7
1580532456.057,7
1580532466.057,7
1580532476.057,7
1580532486.057,7
1580532496.057,7
1580532506.057,7
1580532516.057,7
1580532526.057,7
1580532536.057,8
1580532546.057,8
1580532556.057,8
1580532566.057,8
1580532576.057,8
1580532586.057,8
1580532596.057,8
1580532606.057,8
1580532616.057,8
1580532626.057,8
1580532636.057,8
1580532646.057,8
1580532656.057,8
1580532666.057,8
1580532676.057,8
1580532686.057,8
1580532696.057,8
1580532706.057,8
1580532716.057,8
1580532726.057,8
1580532736.057,8
1580532746.057,8
1580532756.057,8
1580532766.057,8
1580532776.057,8
1580532786.057,8
1580532796.057,8
1580532806.057,8
1580532816.057,8
1580532826.057,8
1580532836.057,8
1580532846.057,8
1580532856.057,8
1580532866.057,8
1580532876.057,8
1580532886.057,8
1580532896.057,8
1580532906.057,8
1580532916.057,8
1580532926.057,8
1580532936.057,8
1580532946.057,8
1580532956.057,8
1580532966.057,8
1580532976.057,8
1580532996.057,8
1580533006.057,8
1580533016.057,8
1580533026.057,8
1580533036.057,8
1580533046.057,8
1580533056.057,8
1580533066.057,8
1580533076.057,8
1580533086.057,8
1580533096.057,8
1580533106.057,8
1580533116.057,8
1580533126.057,8
1580533136.057,8
1580533146.057,8
1580533156.057,8
1580533166.057,8
1580533176.057,8
1580533186.057,8
1580533196.057,8
1580533206.057,8
1580533216.057,8
1580533226.057,8
1580533236.057,8
1580533246.057,8
1580533256.057,8
1580533266.057,8
1580533276.057,8
1580533286.057,8
1580533296.057,8
1580533306.057,8
1580533316.057,8
1580533326.057,8
1580533336.057,8
1580533346.057,9
1580533356.057,9
1580533366.057,9
1580533376.057,9
1580533386.057,9
1580533396.057,9
1580533406.057,9
1580533416.057,9
1580533426.057,9
1580533436.057,9
1580533446.057,9
1580533456.057,9
1580533466.057,9
1580533476.057,9
1580533486.057,9
1580533496.057,9
1580533506.057,9
1580533516.057,9
1580533526.057,9
1580533536.057,9
1580533546.057,9
1580533556.057,9
1580533566.057,9
1580533576.057,9
1580533586.057,9
1580533596.057,9
1580533606.057,9
1580533616.057,9
1580533626.057,9
1580533636.057,9
1580533646.057,9
1580533656.057,9
1580533666.057,9
1580533676.057,9
1580533686.057,9
1580533696.057,9
1580533706.057,9
1580533716.057,9
1580533726.057,9
1580533746.057,9
1580533756.057,9
1580533766.057,9
1580533776.057,9
1580533786.057,9
1580533796.057,9
1580533806.057,9
1580533816.057,9
1580533826.057,9
1580533836.057,9
1580533846.057,9
1580533856.057,9
1580533866.057,9
1580533876.057,9
1580533886.057,9
1580533896.057,9
1580533906.057,9
1580533916.057,9
1580533926.057,9
1580533946.057,9
1580533956.057,9
1580533966.057,9
1580533986.057,9
1580533996.057,9
1580534006.057,9
1580534016.057,9
1580534026.057,9
1580534036.057,9
1580534046.057,9
1580534056.057,9
1580534066.057,9
1580534076.057,9
1580534086.057,9
1580534096.057,9
1580534106.057,9
1580534116.057,9
1580534126.057,9
1580534136.057,9
1580534146.057,9
1580534156.057,9
1580534166.057,9
1580534176.057,9
1580534186.057,9
1580534196.057,9
1580534206.057,9
1580534216.057,10
1580534226.057,10
1580534236.057,10
1580534246.057,10
1580534256.057,10
