epoch,value
1580425209.762,13
1580425219.762,13
1580425229.762,13
1580425239.762,13
1580425249.762,13
1580425259.762,13
1580425269.762,13
1580425279.762,13
1580425289.762,13
1580425299.762,13
1580425309.762,13
1580425319.762,13
1580425329.762,13
1580425339.762,13
1580425349.762,13
1580425359.762,14
1580425369.762,14
1580425379.762,14
1580425389.762,14
1580425399.762,14
1580425409.762,14
1580425419.762,14
1580425429.762,14
1580425439.762,14
1580425449.762,14
1580425459.762,14
1580425469.762,14
1580425479.762,14
1580425489.762,14
1580425499.762,14
1580425509.762,14
1580425519.762,15
1580425529.762,15
1580425539.762,15
1580425549.762,15
1580425559.762,15
1580425569.762,15
1580425579.762,15
1580425589.762,15
1580425599.762,15
1580425609.762,15
1580425619.768,15
1580425629.762,15
1580425639.762,15
1580425659.768,16
1580425669.762,16
1580425679.762,16
1580425689.762,16
1580425699.762,16
1580425709.762,16
1580425719.762,16
1580425729.762,16
1580425739.762,16
1580425749.762,16
1580425759.762,16
1580425769.762,16
1580425779.762,16
1580425789.762,17
1580425799.762,17
1580425809.763,17
1580425819.762,17
1580425829.762,17
1580425839.762,17
1580425849.762,17
1580425859.762,17
1580425869.762,17
1580425879.762,17
1580425889.762,17
1580425899.762,17
1580425909.762,17
1580425919.762,17
1580425929.762,17
1580425939.762,17
1580425949.762,17
1580425959.762,18
1580425969.769,18
1580425979.762,18
1580425989.762,18
1580425999.762,18
1580426009.762,18
1580426019.762,18
1580426029.762,18
1580426039.762,18
1580426049.762,18
1580426059.762,18
1580426069.762,18
1580426079.762,18
1580426089.762,18
1580426099.762,18
1580426109.762,18
1580426119.762,18
1580426129.762,18
1580426139.762,19
1580426149.762,19
1580426159.762,19
1580426169.762,19
1580426179.765,19
1580426189.762,19
1580426199.762,19
1580426209.762,19
1580426219.762,19
1580426229.762,19
1580426239.762,19
1580426249.762,19
1580426259.762,19
1580426269.762,19
1580426279.762,19
1580426289.762,19
1580426299.762,19
1580426309.762,20
1580426319.762,20
1580426329.762,20
1580426339.762,20
1580426349.762,20
1580426359.762,20
1580426369.762,20
1580426379.762,20
1580426389.762,20
1580426399.762,20
1580426409.762,20
1580426419.762,20
1580426429.762,20
1580426439.762,20
1580426449.762,21
1580426459.762,21
1580426469.762,21
1580426479.762,21
1580426489.762,21
1580426499.762,21
1580426509.762,21
1580426519.762,21
1580426529.762,21
1580426539.762,21
1580426549.762,21
1580426559.762,21
1580426569.762,21
1580426579.762,21
1580426589.762,21
1580426599.762,21
1580426609.762,21
1580426619.762,21
1580426629.762,21
1580426639.762,21
1580426649.762,21
1580426659.762,21
1580426669.762,21
1580426679.762,22
1580426689.762,22
1580426699.762,22
1580426709.762,22
1580426719.762,22
1580426729.762,22
1580426739.762,22
1580426749.762,22
1580426759.762,22
1580426769.762,22
1580426779.762,22
1580426789.762,23
1580426799.762,23
1580426809.762,23
1580426819.762,23
1580426829.762,23
1580426839.762,23
1580426849.762,23
1580426859.762,23
1580426869.762,23
1580426879.762,23
1580426889.762,23
1580426899.762,23
1580426909.762,24
1580426919.762,24
1580426929.762,24
1580426939.762,24
1580426949.762,24
1580426959.762,24
1580426969.762,24
1580426979.762,24
1580426989.762,24
1580426999.762,24
1580427009.762,24
1580427019.762,24
1580427029.762,24
1580427039.762,24
1580427049.762,24
1580427059.762,24
1580427069.762,25
1580427079.762,25
1580427089.762,25
1580427099.762,25
1580427109.762,25
1580427119.762,25
1580427129.762,25
1580427139.765,25
1580427149.762,25
1580427159.762,25
1580427169.762,25
1580427179.762,25
1580427189.762,25
1580427199.762,26
1580427209.762,26
1580427219.762,26
1580427229.762,26
1580427239.762,26
1580427249.762,26
1580427259.762,26
1580427269.762,26
1580427279.762,26
1580427289.762,26
1580427299.762,26
1580427309.762,26
1580427319.762,26
1580427329.762,26
1580427339.762,26
1580427349.762,26
1580427359.762,27
1580427369.762,27
1580427379.762,27
1580427389.762,27
1580427399.762,27
1580427409.762,27
1580427419.762,27
1580427429.762,27
1580427439.762,27
1580427449.762,27
1580427459.762,27
1580427469.762,27
1580427479.762,27
1580427499.762,28
1580427509.762,28
1580427519.762,28
1580427529.762,28
1580427539.762,28
1580427549.762,28
1580427559.762,28
1580427569.762,28
1580427589.762,28
1580427599.762,28
1580427609.762,28
1580427619.762,28
1580427629.762,28
1580427639.762,28
1580427649.762,28
1580427659.762,29
1580427669.762,29
1580427679.762,29
1580427689.762,29
1580427699.762,29
1580427709.762,29
1580427719.762,29
1580427729.762,29
1580427739.762,29
1580427749.762,29
1580427759.762,29
1580427779.762,29
1580427789.762,29
1580427799.762,30
1580427809.762,30
1580427819.762,30
1580427829.762,30
1580427839.762,30
1580427849.762,30
1580427859.762,30
1580427869.762,30
1580427879.762,31
1580427889.762,31
1580427899.762,31
1580427909.762,31
1580427919.762,31
1580427929.762,31
1580427939.762,31
1580427949.762,31
1580427959.762,31
1580427969.762,31
1580427979.762,31
1580427989.762,31
1580427999.762,31
1580428009.762,31
1580428019.762,31
1580428029.762,31
1580428039.762,31
1580428049.762,31
1580428059.762,32
1580428069.762,32
1580428079.762,32
1580428089.762,32
1580428099.762,32
1580428109.762,32
1580428119.762,32
1580428129.762,32
1580428139.762,32
1580428149.762,32
1580428159.762,32
1580428169.762,32
1580428179.762,32
1580428189.762,32
1580428199.762,32
1580428209.762,33
1580428219.762,33
1580428229.762,33
1580428239.762,33
1580428249.768,33
1580428259.762,33
1580428269.762,33
1580428279.762,33
1580428289.762,33
1580428299.762,33
1580428309.762,33
1580428319.762,33
1580428329.762,33
1580428339.762,33
1580428349.762,33
1580428359.762,33
1580428369.762,33
1580428379.762,33
1580428389.762,33
1580428399.762,33
1580428409.762,33
1580428419.762,33
1580428429.762,34
1580428439.762,34
1580428449.762,34
1580428459.762,34
1580428469.762,34
1580428479.762,34
1580428489.762,34
1580428499.762,34
1580428509.762,34
1580428519.762,34
1580428529.762,34
1580428539.762,34
1580428549.762,34
1580428559.762,34
1580428569.762,34
1580428579.762,34
1580428589.762,34
1580428599.762,35
1580428609.762,35
1580428619.762,35
1580428629.762,35
1580428639.762,35
1580428659.762,35
1580428669.762,35
1580428679.762,35
1580428689.762,35
1580428699.768,35
1580428709.762,35
1580428719.762,35
1580428729.762,35
1580428739.762,36
1580428749.762,36
1580428759.762,36
1580428769.762,36
1580428779.762,36
1580428789.762,36
1580428799.762,36
1580428809.762,36
1580428819.762,36
1580428829.762,36
1580428839.762,36
1580428849.762,36
1580428859.762,36
1580428869.762,36
1580428879.762,36
1580428889.762,37
1580428899.762,37
1580428909.762,37
1580428919.762,37
1580428929.762,37
1580428939.762,37
1580428949.762,37
1580428959.762,37
1580428969.762,37
1580428979.762,37
1580428989.762,37
1580428999.762,37
1580429009.762,37
1580429019.762,37
1580429039.762,37
1580429049.765,37
1580429059.762,37
1580429069.762,37
1580429079.762,37
1580429089.762,37
1580429099.762,37
1580429109.762,37
1580429119.762,38
1580429129.762,38
1580429139.762,38
1580429149.762,38
1580429159.762,38
1580429169.762,38
1580429179.762,38
1580429189.762,38
1580429199.762,38
1580429209.762,38
1580429219.762,38
1580429229.762,38
1580429239.762,38
1580429249.762,38
1580429259.762,38
1580429269.762,38
1580429279.768,38
1580429289.762,38
1580429299.762,38
1580429309.762,38
1580429319.762,38
1580429329.762,38
1580429339.762,38
1580429349.762,38
1580429359.762,38
1580429369.762,38
1580429379.762,38
1580429389.762,38
1580429399.762,38
1580429409.762,38
1580429419.762,38
1580429429.762,39
1580429439.762,39
1580429449.765,39
1580429459.762,39
1580429469.762,39
1580429479.762,39
1580429489.762,39
1580429499.762,39
1580429509.762,39
1580429519.762,39
1580429529.762,39
1580429539.762,39
1580429549.762,39
1580429559.762,39
1580429569.762,39
1580429579.762,39
1580429589.762,39
1580429599.762,39
1580429609.762,39
1580429619.762,39
1580429629.762,39
1580429639.762,40
1580429649.762,40
1580429659.762,40
1580429679.762,40
1580429689.762,40
1580429699.762,40
1580429709.762,40
1580429719.762,40
1580429729.762,40
1580429739.762,40
1580429749.762,40
1580429759.762,40
1580429769.762,40
1580429779.762,40
1580429789.762,40
1580429799.762,40
1580429809.762,40
1580429819.762,41
1580429829.762,41
1580429839.762,41
1580429849.762,41
1580429859.762,41
1580429869.762,41
1580429879.762,41
1580429889.762,41
1580429899.762,41
1580429909.762,41
1580429919.762,41
1580429929.762,41
1580429939.762,41
1580429949.762,41
1580429959.762,41
1580429969.762,41
1580429989.762,42
1580429999.762,42
1580430009.762,42
1580430019.762,42
1580430029.762,42
1580430039.762,42
1580430049.762,42
1580430059.762,42
1580430069.762,42
1580430089.762,42
1580430099.762,42
1580430109.762,42
1580430119.762,42
1580430129.762,42
1580430139.762,42
1580430149.762,42
1580430159.762,42
1580430169.762,42
1580430179.762,42
1580430189.762,42
1580430199.762,43
1580430209.762,43
1580430219.762,43
1580430229.762,43
1580430239.762,43
1580430249.762,43
1580430259.762,43
1580430269.762,43
1580430279.762,43
1580430289.762,43
1580430299.762,43
1580430309.762,43
1580430319.762,43
1580430329.762,43
1580430339.762,43
1580430349.762,44
1580430359.762,44
1580430369.762,44
1580430379.762,44
1580430389.762,44
1580430399.762,44
1580430409.762,44
1580430419.762,44
1580430429.762,44
