epoch,value
1580423019.762,0
1580423029.762,0
1580423039.762,0
1580423049.762,0
1580423059.762,0
1580423069.762,0
1580423079.762,0
1580423089.762,0
1580423099.762,0
1580423109.762,0
1580423119.762,0
1580423129.762,1
1580423139.768,1
1580423149.762,1
1580423159.762,1
1580423169.762,1
1580423179.762,1
1580423189.762,1
1580423199.762,1
1580423209.762,1
1580423219.762,1
1580423229.762,1
1580423239.762,1
1580423249.762,1
1580423259.762,1
1580423269.762,1
1580423279.762,1
1580423289.762,1
1580423299.762,1
1580423309.762,1
1580423319.762,1
1580423329.762,1
1580423339.762,2
1580423349.762,2
1580423359.762,2
1580423369.762,2
1580423379.762,2
1580423389.762,2
1580423399.762,2
1580423409.762,2
1580423419.762,2
1580423429.762,2
1580423439.762,2
1580423449.762,2
1580423459.762,2
1580423469.762,2
1580423479.762,2
1580423489.762,2
1580423499.762,2
1580423509.762,2
1580423519.762,2
1580423529.762,3
1580423539.762,3
1580423549.762,3
1580423559.762,3
1580423569.762,3
1580423579.762,3
1580423589.762,3
1580423599.762,3
1580423609.762,3
1580423619.762,3
1580423629.762,3
1580423639.762,3
1580423649.762,3
1580423659.762,3
1580423669.762,3
1580423679.762,3
1580423689.762,3
1580423699.762,3
1580423709.762,3
1580423719.762,3
1580423729.762,3
1580423739.762,3
1580423749.762,3
1580423759.762,3
1580423769.762,4
1580423779.762,4
1580423789.762,4
1580423799.762,4
1580423809.762,4
1580423819.762,4
1580423829.762,4
1580423839.768,4
1580423849.762,4
1580423859.762,4
1580423869.762,4
1580423879.762,4
1580423889.762,4
1580423899.762,4
1580423909.762,4
1580423919.762,5
1580423929.762,5
1580423939.762,5
1580423949.762,5
1580423959.762,5
1580423969.762,5
1580423979.762,5
1580423989.762,5
1580423999.762,5
1580424009.762,5
1580424019.762,5
1580424029.762,5
1580424039.762,5
1580424049.762,6
1580424059.762,6
1580424069.762,6
1580424079.762,6
1580424089.762,6
1580424099.762,6
1580424109.768,6
1580424119.762,6
1580424129.762,6
1580424139.762,6
1580424149.762,6
1580424159.762,6
1580424169.762,6
1580424179.762,6
1580424189.762,6
1580424209.762,7
1580424219.762,7
1580424229.762,7
1580424239.762,7
1580424249.762,7
1580424259.762,7
1580424269.762,7
1580424279.762,7
1580424289.762,7
1580424299.762,7
1580424309.762,7
1580424319.762,7
1580424329.762,7
1580424339.762,7
1580424349.762,7
1580424359.762,7
1580424369.765,7
1580424379.762,7
1580424389.762,7
1580424399.762,7
1580424409.762,7
1580424419.762,8
1580424429.762,8
1580424439.762,8
1580424449.762,8
1580424459.762,8
1580424469.762,8
1580424479.762,8
1580424489.762,8
1580424499.762,8
1580424509.762,8
1580424519.762,8
1580424529.762,8
1580424539.762,9
1580424549.762,9
1580424559.762,9
1580424569.762,9
1580424579.762,9
1580424589.762,9
1580424599.762,9
1580424609.762,9
1580424619.762,9
1580424629.762,9
1580424639.762,9
1580424649.762,9
1580424659.762,9
1580424669.762,9
1580424679.762,10
1580424689.765,10
1580424699.762,10
1580424709.762,10
1580424719.762,10
1580424729.762,10
1580424739.762,10
1580424749.762,10
1580424759.762,10
1580424769.762,10
1580424779.762,10
1580424789.762,10
1580424799.762,10
1580424809.762,10
1580424819.762,10
1580424829.762,11
1580424839.762,11
1580424849.762,11
1580424859.762,11
1580424869.762,11
1580424879.762,11
1580424889.762,11
1580424899.762,11
1580424909.762,11
1580424919.762,11
1580424929.762,11
1580424939.762,11
1580424949.762,11
1580424959.762,11
1580424969.762,11
1580424979.762,11
1580424989.762,11
1580424999.762,12
1580425009.762,12
1580425019.762,12
1580425029.762,12
1580425039.762,12
1580425049.762,12
1580425059.762,12
1580425069.762,12
1580425079.762,12
1580425089.762,12
1580425099.762,12
1580425109.762,12
1580425119.762,12
1580425129.762,12
1580425139.762,12
1580425149.762,12
1580425159.762,12
1580425169.762,12
1580425179.762,12
1580425189.762,12
1580425199.762,13
