epoch,value
1579805003.342,238034
1579805013.321,238036
1579805023.321,238036
1579805033.322,238036
1579805043.321,238037
1579805053.321,238037
1579805063.321,238039
1579805073.321,238044
1579805083.321,238062
1579805093.321,238071
1579805103.321,238076
1579805113.321,238080
1579805123.321,238090
1579805133.321,238099
1579805143.321,238105
1579805153.321,238124
1579805163.321,238130
1579805173.321,238142
1579805183.321,238144
1579805193.321,238162
1579805203.321,238173
1579805213.321,238179
1579805223.321,238195
1579805233.323,238197
1579805243.321,238207
1579805253.321,238215
1579805263.321,238230
1579805273.321,238240
1579805283.321,238245
1579805293.321,238251
1579805303.321,238254
1579805313.321,238264
1579805323.322,238268
1579805333.323,238285
1579805343.321,238290
1579805353.321,238301
1579805363.322,238301
1579805373.321,238301
1579805383.322,238302
1579805393.321,238302
1579805403.322,238302
1579805413.321,238304
1579805423.321,238305
1579805433.321,238306
1579805443.321,238307
1579805453.321,238308
1579805463.321,238308
1579805473.321,238309
1579805483.321,238310
1579805493.321,238310
1579805503.321,238310
1579805513.321,238312
1579805523.321,238312
1579805533.321,238312
1579805543.322,238312
1579805553.322,238312
1579805563.323,238312
1579805573.321,238312
1579805583.322,238312
1579805593.321,238312
1579805603.321,238312
1579805613.321,238316
1579805623.322,238316
1579805633.321,238316
1579805643.321,238316
1579805653.323,238317
1579805663.323,238318
1579805673.321,238320
1579805683.321,238320
1579805693.321,238320
1579805703.322,238321
1579805713.321,238321
1579805723.321,238321
1579805733.321,238322
1579805743.321,238322
1579805753.321,238322
1579805763.321,238324
1579805773.321,238324
1579805783.321,238325
1579805793.321,238326
1579805803.321,238326
1579805813.322,238327
1579805823.322,238327
1579805833.322,238327
1579805843.323,238327
1579805853.321,238327
1579805863.322,238328
1579805873.321,238328
1579805883.322,238328
1579805893.321,238329
1579805903.321,238330
1579805913.321,238330
1579805923.322,238331
1579805933.321,238331
1579805943.321,238332
1579805953.321,238334
1579805963.322,238336
1579805973.322,238336
1579805983.321,238338
1579805993.321,238338
1579806003.322,238339
1579806013.321,238341
1579806023.322,238341
1579806033.322,238342
1579806043.321,238344
1579806053.321,238344
1579806063.321,238344
1579806073.321,238346
1579806083.321,238347
1579806093.321,238348
1579806103.322,238350
1579806113.321,238350
1579806123.321,238350
1579806133.321,238350
1579806143.321,238350
1579806153.321,238350
1579806163.321,238350
1579806173.321,238350
1579806183.321,238351
1579806193.321,238352
1579806203.323,238357
1579806213.321,238358
1579806223.321,238359
1579806233.321,238359
1579806243.321,238360
1579806253.321,238361
1579806263.321,238361
1579806273.321,238361
1579806283.321,238362
1579806293.322,238362
1579806303.321,238362
1579806313.321,238364
1579806323.321,238364
1579806333.321,238366
1579806343.322,238366
1579806353.321,238366
1579806363.321,238367
1579806373.321,238367
1579806383.321,238368
1579806393.321,238369
1579806403.321,238370
1579806413.322,238372
1579806423.322,238374
1579806433.321,238374
1579806443.321,238375
1579806453.326,238376
1579806463.324,238376
1579806473.321,238376
1579806483.321,238378
1579806493.321,238378
1579806503.321,238378
1579806513.321,238379
1579806523.321,238380
1579806533.321,238381
1579806543.321,238382
1579806553.321,238383
1579806563.321,238384
