epoch,value
1579795398.155,37852
1579795408.138,37852
1579795418.139,37852
1579795428.137,37852
1579795438.137,37852
1579795448.137,37852
1579795458.137,37852
1579795468.137,37852
1579795478.137,37852
1579795488.137,37852
1579795498.137,37852
1579795508.137,37852
1579795518.137,37852
1579795528.137,37852
1579795538.137,37852
1579795548.137,37852
1579795558.137,37852
1579795568.137,37852
1579795578.137,37852
1579795588.138,37852
1579795598.138,37852
1579795608.137,37852
1579795618.137,37852
1579795628.137,37852
1579795638.137,37852
1579795648.137,37852
1579795658.137,37852
1579795668.137,37852
1579795678.138,37852
1579795688.138,37852
1579795698.137,37852
1579795708.137,37852
1579795718.137,37852
1579795728.137,37852
1579795738.138,37853
1579795748.138,37853
1579795758.137,37853
1579795768.137,37853
1579795778.137,37853
1579795788.138,37853
1579795798.137,37853
1579795808.139,37854
1579795818.137,37854
1579795828.137,37854
1579795838.137,37854
1579795848.137,37854
1579795858.137,37855
1579795868.137,37855
1579795878.137,37855
1579795888.137,37855
1579795898.137,37855
1579795908.137,37855
1579795918.137,37855
1579795928.137,37855
1579795938.137,37855
1579795948.137,37855
1579795958.137,37855
1579795968.137,37855
1579795978.138,37855
1579795988.137,37855
1579795998.137,37855
1579796008.137,37855
1579796018.137,37855
1579796028.137,37855
1579796038.137,37855
1579796048.137,37855
1579796058.137,37855
1579796068.139,37855
1579796078.137,37855
1579796088.137,37855
1579796098.137,37856
1579796108.137,37856
1579796118.137,37856
1579796128.137,37856
1579796138.137,37856
1579796148.137,37856
1579796158.137,37856
1579796168.138,37856
1579796178.137,37856
1579796188.137,37856
1579796198.137,37856
1579796208.137,37856
1579796218.137,37856
1579796228.137,37856
1579796238.137,37856
1579796248.137,37856
1579796258.137,37857
1579796268.137,37857
1579796278.137,37857
1579796288.138,37857
1579796298.137,37857
1579796308.141,37857
1579796318.137,37857
1579796328.137,37857
1579796338.137,37857
1579796348.137,37857
1579796358.137,37857
1579796368.137,37857
1579796378.137,37857
1579796388.137,37857
1579796398.137,37857
1579796408.137,37857
1579796418.137,37857
1579796428.137,37857
1579796438.137,37857
1579796448.137,37857
1579796458.137,37857
1579796468.137,37857
1579796478.137,37857
1579796488.137,37858
1579796498.137,37858
1579796508.140,37858
1579796518.137,37858
1579796528.137,37858
1579796538.137,37858
1579796548.137,37858
1579796558.137,37858
1579796568.137,37858
1579796578.137,37858
1579796588.137,37858
1579796598.137,37858
1579796608.137,37858
1579796618.137,37858
1579796628.137,37858
1579796638.137,37858
1579796648.137,37858
1579796658.137,37858
1579796668.137,37858
1579796678.137,37860
1579796688.137,37860
1579796698.138,37860
1579796708.137,37860
1579796718.137,37860
1579796728.137,37860
1579796738.137,37860
1579796748.137,37860
1579796758.137,37860
1579796768.137,37860
1579796778.137,37860
1579796788.138,37860
1579796798.137,37860
1579796808.137,37860
1579796818.137,37860
1579796828.137,37860
1579796838.137,37861
1579796848.137,37861
1579796858.137,37861
1579796868.137,37861
1579796878.138,37861
1579796888.137,37861
1579796898.137,37861
1579796908.137,37861
1579796918.137,37861
1579796928.137,37861
1579796938.137,37861
1579796948.137,37861
1579796958.137,37861
