epoch,value
1579927298.905,0
1579927308.905,0
1579927318.905,0
1579927328.905,0
1579927338.905,0
1579927348.905,0
1579927358.905,0
1579927368.905,0
1579927378.905,0
1579927388.905,0
1579927398.905,0
1579927408.905,0
1579927418.905,0
1579927428.905,0
1579927438.905,0
1579927448.905,0
1579927458.905,0
1579927468.905,0
1579927478.905,0
1579927488.905,0
1579927498.905,0
1579927508.905,0
1579927518.905,0
1579927528.905,0
1579927538.905,0
1579927548.905,0
1579927558.905,0
1579927568.905,0
1579927578.905,0
1579927588.905,0
1579927598.905,0
1579927618.905,0
1579927628.905,0
1579927638.905,0
1579927648.905,0
1579927658.905,0
1579927668.905,0
1579927678.905,0
1579927688.905,0
1579927698.905,0
1579927708.905,0
1579927718.905,0
1579927728.905,0
1579927738.905,0
1579927748.905,0
1579927758.905,0
1579927768.905,0
1579927778.905,0
1579927788.905,0
1579927798.905,0
1579927808.905,0
1579927818.905,0
1579927828.905,0
1579927838.905,0
1579927848.905,0
1579927858.905,0
1579927868.905,0
1579927878.905,0
1579927888.905,0
1579927898.905,0
1579927908.905,0
1579927918.905,0
1579927928.905,0
1579927938.905,0
1579927948.905,0
1579927958.905,0
1579927968.905,0
1579927978.905,0
1579927988.905,0
1579927998.905,0
1579928008.905,0
1579928018.905,0
1579928028.905,0
1579928038.905,0
1579928048.905,0
1579928058.905,0
1579928068.905,0
1579928078.905,0
1579928088.905,0
1579928098.905,0
1579928108.905,0
1579928118.905,0
1579928128.905,0
1579928138.905,0
1579928148.905,0
1579928158.905,0
1579928168.905,0
1579928178.905,0
1579928188.905,0
1579928198.905,0
1579928208.905,0
1579928218.905,0
1579928228.905,0
1579928238.905,0
1579928248.905,0
1579928258.905,0
1579928268.905,0
1579928278.905,0
1579928288.905,0
1579928298.905,0
1579928308.905,0
1579928318.905,0
1579928328.905,1
1579928338.905,1
1579928348.905,1
1579928358.905,1
1579928368.905,1
1579928378.905,1
1579928388.905,1
1579928398.905,1
1579928408.905,1
1579928418.905,1
1579928428.905,1
1579928438.905,1
1579928448.905,1
1579928458.905,1
1579928468.905,1
1579928478.905,1
1579928488.905,1
1579928508.905,1
1579928518.905,1
1579928528.905,1
1579928538.905,1
1579928548.905,1
1579928558.905,1
1579928568.905,1
1579928578.905,1
1579928588.905,1
1579928598.905,1
1579928608.905,1
1579928618.905,1
1579928628.905,1
1579928638.905,1
1579928648.905,1
1579928668.905,1
1579928678.905,1
1579928688.905,1
1579928698.905,1
1579928708.905,1
1579928718.905,1
1579928728.905,1
1579928738.905,1
1579928748.905,1
1579928758.905,1
1579928768.905,1
1579928778.905,1
1579928788.905,1
1579928798.905,1
1579928808.905,1
1579928818.905,1
1579928828.905,1
1579928838.905,1
1579928848.905,1
1579928858.905,1
1579928868.905,1
1579928878.905,1
1579928888.905,1
1579928898.905,1
1579928908.905,1
1579928918.905,1
1579928928.905,1
1579928938.905,1
1579928948.909,1
1579928958.905,1
1579928968.905,1
1579928978.905,1
1579928988.905,1
1579928998.905,1
1579929008.905,1
1579929018.905,1
1579929028.905,1
1579929038.905,1
1579929048.905,1
1579929058.905,1
1579929068.905,1
1579929078.905,2
1579929088.905,2
1579929098.905,2
1579929108.905,2
1579929118.905,2
1579929128.905,2
1579929138.905,2
1579929148.905,2
1579929158.905,2
1579929168.905,2
1579929178.905,2
1579929188.905,2
1579929198.905,2
1579929208.905,2
1579929218.905,2
1579929228.905,2
1579929238.905,2
1579929248.905,2
1579929258.905,2
1579929268.905,2
1579929278.905,2
1579929288.905,2
1579929298.905,2
1579929308.905,2
1579929318.905,2
1579929328.905,2
1579929338.905,2
1579929348.905,2
1579929358.905,2
1579929368.905,2
1579929378.905,2
1579929388.905,2
1579929398.905,2
1579929408.905,2
1579929418.905,2
1579929428.905,2
1579929438.905,2
1579929448.905,2
1579929458.905,2
1579929468.905,2
1579929478.905,2
1579929488.905,2
1579929498.905,2
1579929508.905,2
1579929518.905,2
1579929528.905,2
1579929538.905,2
1579929548.905,2
1579929558.905,2
1579929568.905,2
1579929578.905,2
1579929588.905,2
1579929598.905,2
1579929608.905,2
1579929618.905,2
1579929628.905,2
1579929638.905,2
1579929648.905,2
1579929658.905,2
1579929668.905,2
1579929678.905,2
1579929688.905,2
1579929698.905,2
1579929708.905,2
1579929718.905,2
1579929728.905,2
1579929738.905,2
1579929748.905,2
1579929758.905,2
1579929768.905,2
1579929778.905,2
1579929788.905,2
1579929798.905,2
1579929808.905,2
1579929818.905,2
1579929828.905,2
1579929838.905,3
1579929848.905,3
1579929858.905,3
1579929868.905,3
1579929878.905,3
1579929888.905,3
1579929898.905,3
1579929908.905,3
1579929918.905,3
1579929928.905,3
1579929938.905,3
1579929948.905,3
1579929958.905,3
1579929968.905,3
1579929978.905,3
1579929988.905,3
1579929998.905,3
1579930008.905,3
1579930018.905,3
1579930028.905,3
