epoch,value
1579882991.949,247197
1579883001.931,247198
1579883011.930,247198
1579883021.930,247198
1579883031.930,247200
1579883041.930,247200
1579883051.930,247200
1579883061.930,247200
1579883071.931,247200
1579883081.930,247200
1579883091.930,247200
1579883101.930,247200
1579883111.931,247200
1579883121.931,247200
1579883131.931,247200
1579883141.931,247201
1579883151.930,247201
1579883161.931,247201
1579883171.930,247201
1579883181.930,247201
1579883191.932,247202
1579883201.930,247202
1579883211.930,247204
1579883221.930,247204
1579883231.930,247205
1579883241.930,247206
1579883251.930,247206
1579883261.930,247207
1579883271.930,247208
1579883281.930,247209
1579883291.930,247210
1579883301.931,247210
1579883311.930,247211
1579883321.932,247211
1579883331.930,247212
1579883341.930,247212
1579883351.930,247213
1579883361.930,247214
1579883371.930,247214
1579883381.930,247214
1579883391.930,247214
1579883401.930,247214
1579883411.930,247215
1579883421.930,247215
1579883431.930,247216
1579883441.930,247216
1579883451.930,247216
1579883461.931,247216
1579883471.932,247217
1579883481.930,247217
1579883491.930,247220
1579883501.930,247220
1579883511.932,247222
1579883521.930,247222
1579883531.930,247222
1579883541.930,247222
1579883551.930,247223
1579883561.930,247223
1579883571.930,247223
1579883581.930,247223
1579883591.930,247223
1579883601.930,247224
1579883611.930,247224
1579883621.931,247226
1579883631.930,247227
1579883641.931,247228
1579883651.930,247228
1579883661.930,247228
1579883671.931,247230
1579883681.930,247230
1579883691.931,247232
1579883701.930,247232
1579883711.932,247232
1579883721.930,247232
1579883731.931,247233
1579883741.930,247235
1579883751.930,247235
1579883761.930,247236
1579883771.930,247238
1579883781.930,247238
1579883791.933,247238
1579883801.930,247238
1579883811.930,247239
1579883821.930,247241
1579883831.930,247241
1579883841.930,247241
1579883851.931,247241
1579883861.930,247241
1579883871.931,247242
1579883881.930,247243
1579883891.930,247244
1579883901.930,247244
1579883911.930,247244
1579883921.930,247246
1579883931.931,247247
1579883941.930,247249
1579883951.930,247249
1579883961.930,247249
1579883971.931,247250
1579883981.930,247250
1579883991.930,247251
1579884001.930,247252
1579884011.931,247252
1579884021.930,247252
1579884031.930,247253
1579884041.930,247254
1579884051.932,247254
1579884061.930,247256
1579884071.931,247257
1579884081.930,247257
1579884091.930,247257
1579884101.930,247258
1579884111.930,247259
1579884121.930,247260
1579884131.930,247260
1579884141.930,247261
1579884151.930,247262
1579884161.930,247262
1579884171.930,247262
1579884181.930,247264
1579884191.930,247264
1579884201.930,247266
1579884211.930,247266
1579884221.930,247266
1579884231.930,247268
1579884241.931,247268
1579884251.930,247268
1579884261.930,247270
1579884271.931,247271
1579884281.931,247271
1579884291.931,247271
1579884301.930,247273
1579884311.930,247273
1579884321.930,247273
1579884331.930,247274
1579884341.930,247276
1579884351.930,247278
1579884361.930,247279
1579884371.930,247280
1579884381.931,247280
1579884391.930,247280
1579884401.930,247281
1579884411.930,247282
1579884421.932,247282
1579884431.931,247282
1579884441.931,247283
1579884451.931,247284
1579884461.930,247285
1579884471.930,247286
1579884481.930,247286
1579884491.930,247288
1579884501.930,247288
1579884511.930,247289
1579884521.930,247290
1579884531.930,247291
1579884541.930,247292
1579884551.932,247292
1579884561.930,247293
1579884571.930,247294
1579884581.930,247294
1579884591.930,247296
1579884601.930,247296
1579884611.930,247298
1579884621.930,247298
1579884631.933,247299
1579884641.930,247300
1579884651.930,247301
1579884661.932,247302
1579884671.930,247304
1579884681.930,247305
1579884691.931,247306
1579884701.933,247306
1579884711.930,247307
1579884721.930,247308
1579884731.930,247310
1579884741.930,247310
1579884751.930,247312
1579884761.930,247313
1579884771.930,247313
1579884781.930,247314
1579884791.930,247314
1579884801.930,247315
1579884811.931,247316
1579884821.930,247316
1579884831.930,247316
1579884841.930,247317
1579884851.930,247319
1579884861.930,247319
1579884871.930,247319
1579884881.930,247319
1579884891.930,247319
1579884901.930,247319
1579884911.930,247320
1579884921.930,247320
1579884931.930,247321
1579884941.930,247322
1579884951.930,247323
1579884961.930,247324
1579884971.930,247324
1579884981.930,247326
1579884991.931,247328
1579885001.931,247329
1579885011.930,247329
1579885021.930,247330
1579885031.931,247331
1579885041.930,247331
1579885051.930,247331
1579885061.930,247332
1579885071.931,247333
1579885081.930,247333
1579885091.930,247334
1579885101.932,247334
1579885111.930,247334
1579885121.930,247336
1579885131.930,247336
1579885141.930,247336
1579885151.930,247336
1579885161.930,247337
1579885171.930,247337
1579885181.930,247338
1579885191.930,247339
1579885201.930,247339
1579885211.930,247339
1579885221.930,247339
1579885231.930,247340
1579885241.930,247341
1579885251.930,247341
1579885261.930,247342
1579885271.930,247343
1579885281.930,247343
1579885291.933,247346
1579885301.930,247346
1579885311.931,247348
1579885321.930,247349
1579885331.930,247350
1579885341.930,247351
1579885351.931,247352
1579885361.930,247352
1579885371.930,247352
1579885381.930,247353
1579885391.930,247354
1579885401.932,247354
1579885411.930,247356
1579885421.930,247356
1579885431.930,247357
1579885441.930,247357
1579885451.930,247358
1579885461.930,247358
1579885471.930,247359
1579885481.930,247361
1579885491.930,247362
1579885501.930,247362
1579885511.930,247364
1579885521.930,247366
1579885531.930,247366
1579885541.930,247366
1579885551.933,247367
1579885561.930,247368
1579885571.930,247369
1579885581.930,247370
1579885591.930,247370
1579885601.933,247371
1579885611.932,247371
1579885621.933,247372
1579885631.930,247373
1579885641.930,247374
1579885651.930,247375
1579885661.930,247376
1579885671.930,247377
1579885681.930,247378
1579885691.930,247378
1579885701.930,247378
1579885711.930,247379
1579885721.932,247381
1579885731.930,247381
1579885741.930,247382
1579885751.931,247383
