epoch,value
1579810522.569,241433
1579810532.548,241434
1579810542.546,241434
1579810552.546,241434
1579810562.549,241435
1579810572.546,241435
1579810582.546,241441
1579810592.546,241488
1579810602.546,241533
1579810612.546,241568
1579810622.549,241595
1579810632.546,241632
1579810642.546,241668
1579810652.547,241703
1579810662.549,241738
1579810672.548,241753
1579810682.546,241784
1579810692.546,241817
1579810702.547,241858
1579810712.546,241898
1579810722.546,241936
1579810732.546,241975
1579810742.546,242012
1579810752.547,242044
1579810762.546,242070
1579810772.547,242092
1579810782.547,242132
1579810792.546,242166
1579810802.546,242210
1579810812.546,242251
1579810822.546,242287
1579810832.546,242324
1579810842.546,242373
1579810852.546,242408
1579810862.546,242457
1579810872.546,242512
1579810882.546,242557
1579810892.546,242604
1579810902.546,242645
1579810912.546,242681
1579810922.546,242721
1579810932.546,242756
1579810942.546,242798
1579810952.546,242839
1579810962.547,242883
1579810972.546,242922
1579810982.546,242952
1579810992.546,242994
1579811002.546,243027
1579811012.546,243027
1579811022.546,243028
1579811032.546,243028
1579811042.546,243028
1579811052.548,243028
1579811062.546,243030
1579811072.546,243031
1579811082.546,243032
1579811092.546,243033
1579811102.546,243034
1579811112.546,243034
1579811122.547,243036
1579811132.547,243036
1579811142.546,243036
1579811152.546,243037
1579811162.546,243037
1579811172.546,243037
1579811182.546,243037
1579811192.546,243037
1579811202.546,243039
1579811212.546,243040
1579811222.546,243041
1579811232.546,243043
1579811242.546,243043
1579811252.546,243044
1579811262.546,243044
1579811272.546,243046
1579811282.546,243046
1579811292.546,243046
1579811302.546,243047
1579811312.546,243047
1579811322.546,243048
1579811332.546,243048
1579811342.546,243049
1579811352.546,243050
1579811362.546,243050
1579811372.546,243052
1579811382.546,243053
1579811392.546,243055
1579811402.547,243055
1579811412.547,243055
1579811422.547,243055
1579811432.546,243056
1579811442.547,243056
1579811452.546,243056
1579811462.546,243058
1579811472.546,243058
1579811482.546,243058
1579811492.547,243059
1579811502.546,243060
1579811512.546,243061
1579811522.546,243061
1579811532.548,243061
1579811542.548,243061
1579811552.546,243061
1579811562.546,243061
1579811572.549,243061
1579811582.546,243061
1579811592.546,243062
1579811602.546,243062
1579811612.546,243062
1579811622.546,243062
1579811632.546,243062
1579811642.546,243063
1579811652.546,243064
1579811662.546,243064
1579811672.546,243064
1579811682.547,243064
1579811692.547,243064
1579811702.546,243065
1579811712.547,243065
1579811722.546,243065
1579811732.546,243065
1579811742.547,243065
1579811752.546,243065
1579811762.546,243065
1579811772.546,243065
1579811782.546,243065
1579811792.547,243065
1579811802.546,243065
1579811812.546,243065
1579811822.546,243065
1579811832.546,243065
1579811842.546,243065
1579811852.547,243066
1579811862.546,243066
1579811872.546,243066
1579811882.549,243066
1579811892.546,243066
1579811902.546,243067
1579811912.546,243067
1579811922.546,243068
1579811932.546,243069
1579811942.546,243070
1579811952.546,243070
1579811962.546,243070
1579811972.547,243071
1579811982.546,243071
1579811992.546,243071
1579812002.546,243071
1579812012.547,243074
1579812022.547,243074
1579812032.546,243074
1579812042.547,243074
1579812052.546,243074
1579812062.546,243076
1579812072.546,243076
1579812082.546,243076
