epoch,value
1579901708.181,51238
1579901718.162,51238
1579901728.161,51238
1579901738.162,51238
1579901748.161,51238
1579901758.161,51238
1579901768.162,51238
1579901778.161,51238
1579901788.161,51238
1579901798.161,51238
1579901808.161,51238
1579901818.161,51238
1579901828.162,51238
1579901838.161,51238
1579901848.162,51240
1579901858.162,51240
1579901868.161,51240
1579901878.161,51240
1579901888.161,51240
1579901898.161,51240
1579901908.161,51242
1579901918.161,51242
1579901928.163,51242
1579901938.161,51242
1579901948.164,51242
1579901958.161,51242
1579901968.161,51242
1579901978.161,51242
1579901988.161,51242
1579901998.162,51242
1579902008.161,51242
1579902018.161,51242
1579902028.161,51242
1579902038.161,51242
1579902048.161,51242
1579902058.161,51242
1579902068.161,51242
1579902078.161,51242
1579902088.161,51242
1579902098.161,51242
1579902108.161,51242
1579902118.164,51242
1579902128.161,51243
1579902138.161,51243
1579902148.162,51244
1579902158.162,51244
1579902168.162,51244
1579902178.165,51244
1579902188.162,51244
1579902198.161,51244
1579902208.161,51244
1579902218.161,51244
1579902228.161,51244
1579902238.162,51244
1579902248.162,51244
1579902258.161,51247
1579902268.163,51248
1579902278.161,51250
1579902288.162,51250
1579902298.162,51250
1579902308.163,51250
1579902318.162,51250
1579902328.161,51250
1579902338.162,51250
1579902348.161,51250
1579902358.161,51250
1579902368.162,51250
1579902378.162,51250
1579902388.161,51250
1579902398.162,51250
1579902408.163,51250
1579902418.161,51250
1579902428.161,51250
1579902438.161,51250
1579902448.161,51250
1579902458.161,51250
1579902468.162,51250
1579902478.162,51250
1579902488.162,51250
1579902498.161,51250
1579902508.162,51250
1579902518.161,51251
1579902528.161,51251
1579902538.164,51251
1579902548.161,51251
1579902558.161,51251
1579902568.162,51251
1579902578.162,51251
1579902588.161,51251
1579902598.162,51251
1579902608.161,51251
1579902618.161,51251
1579902628.162,51251
1579902638.161,51251
1579902648.161,51251
1579902658.162,51253
1579902668.162,51253
1579902678.161,51253
1579902688.162,51253
1579902698.161,51254
1579902708.161,51254
1579902718.162,51254
1579902728.161,51254
1579902738.161,51254
1579902748.161,51254
1579902758.163,51254
1579902768.161,51254
1579902778.161,51254
1579902788.163,51254
1579902798.161,51254
1579902808.165,51256
1579902818.162,51256
1579902828.163,51256
1579902838.161,51257
1579902848.161,51257
1579902858.161,51258
1579902868.165,51258
1579902878.162,51258
1579902888.161,51258
1579902898.161,51258
1579902908.162,51258
1579902918.161,51259
1579902928.162,51259
1579902938.162,51259
1579902948.161,51259
1579902958.161,51259
1579902968.161,51259
1579902978.161,51259
1579902988.161,51259
1579902998.162,51259
1579903008.161,51259
1579903018.161,51259
1579903028.161,51259
1579903038.162,51259
1579903048.161,51259
1579903058.161,51260
1579903068.161,51260
1579903078.161,51260
1579903088.161,51262
1579903098.161,51262
1579903108.161,51262
1579903118.161,51262
1579903128.162,51262
1579903138.161,51262
1579903148.161,51262
1579903158.162,51262
1579903168.161,51262
1579903178.161,51262
1579903188.161,51262
1579903198.161,51262
1579903208.161,51262
1579903218.162,51262
1579903228.161,51263
1579903238.161,51263
1579903248.162,51263
1579903258.161,51263
1579903268.162,51263
1579903278.161,51263
1579903288.161,51263
1579903298.161,51263
1579903308.161,51263
1579903318.161,51263
1579903328.161,51264
1579903338.161,51264
1579903348.162,51264
1579903358.163,51264
1579903368.162,51264
1579903378.164,51264
1579903388.163,51266
1579903398.162,51266
1579903408.161,51266
1579903418.161,51266
1579903428.162,51266
1579903438.161,51266
1579903448.161,51266
1579903458.161,51266
1579903468.161,51266
1579903478.161,51266
1579903488.161,51266
1579903498.162,51266
1579903508.162,51266
1579903518.162,51268
1579903528.162,51268
1579903538.161,51268
1579903548.163,51268
1579903558.162,51268
1579903568.161,51269
1579903578.161,51269
1579903588.161,51270
1579903598.162,51270
1579903608.161,51270
1579903618.161,51270
1579903628.163,51270
1579903638.161,51270
1579903648.161,51270
1579903658.161,51270
1579903668.162,51270
1579903678.161,51270
1579903688.161,51270
1579903698.161,51270
1579903708.162,51270
1579903718.161,51270
1579903728.161,51271
1579903738.165,51272
1579903748.161,51272
1579903758.162,51272
1579903768.161,51274
1579903778.162,51274
1579903788.162,51274
1579903798.161,51275
1579903808.163,51275
1579903818.161,51277
1579903828.161,51277
1579903838.162,51277
1579903848.161,51277
1579903858.163,51278
1579903868.162,51278
1579903878.161,51279
1579903888.161,51279
1579903898.161,51280
1579903908.161,51280
1579903918.162,51280
1579903928.162,51280
1579903938.162,51280
1579903948.161,51280
1579903958.161,51280
1579903968.162,51280
1579903978.161,51280
1579903988.161,51280
1579903998.162,51280
1579904008.162,51280
1579904018.161,51281
1579904028.162,51281
1579904038.161,51281
1579904048.162,51281
1579904058.161,51281
1579904068.162,51281
1579904078.162,51281
1579904088.163,51281
1579904098.161,51281
1579904108.161,51282
1579904118.161,51282
1579904128.161,51284
1579904138.161,51285
1579904148.161,51287
1579904158.161,51289
1579904168.164,51290
1579904178.162,51290
1579904188.161,51290
1579904198.162,51290
1579904208.161,51290
1579904218.161,51291
1579904228.161,51292
1579904238.162,51292
1579904248.162,51292
1579904258.161,51294
1579904268.161,51294
1579904278.161,51294
1579904288.161,51294
1579904298.164,51294
1579904308.161,51294
1579904318.161,51294
1579904328.162,51294
1579904338.161,51294
1579904348.161,51294
1579904358.161,51294
1579904368.161,51294
1579904378.161,51294
1579904388.161,51294
1579904398.161,51294
1579904408.161,51294
1579904418.162,51294
1579904428.163,51294
1579904438.161,51294
1579904448.161,51294
1579904458.161,51294
1579904468.162,51294
