epoch,value
1579806806.869,37945
1579806816.851,37945
1579806826.851,37945
1579806836.851,37945
1579806846.852,37945
1579806856.851,37945
1579806866.851,37945
1579806876.852,37945
1579806886.851,37945
1579806896.853,37945
1579806906.852,37946
1579806916.852,37946
1579806926.852,37946
1579806936.852,37946
1579806946.851,37946
1579806956.854,37946
1579806966.851,37946
1579806976.852,37946
1579806986.853,37946
1579806996.851,37946
1579807006.851,37947
1579807016.851,37947
1579807026.852,37948
1579807036.852,37948
1579807046.851,37949
1579807056.852,37949
1579807066.851,37949
1579807076.851,37949
1579807086.851,37949
1579807096.852,37949
1579807106.851,37949
1579807116.851,37949
1579807126.851,37949
1579807136.853,37949
1579807146.851,37949
1579807156.852,37949
1579807166.853,37949
1579807176.852,37950
1579807186.852,37951
1579807196.851,37951
1579807206.851,37951
1579807216.851,37951
1579807226.852,37951
1579807236.852,37951
1579807246.851,37951
1579807256.851,37951
1579807266.851,37952
1579807276.851,37952
1579807286.852,37952
1579807296.852,37952
1579807306.851,37952
1579807316.853,37952
1579807326.853,37952
1579807336.851,37952
1579807346.851,37952
1579807356.852,37952
1579807366.851,37952
1579807376.852,37952
1579807386.851,37954
1579807396.852,37954
1579807406.852,37955
1579807416.852,37955
1579807426.852,37955
1579807436.852,37955
1579807446.852,37955
1579807456.851,37955
1579807466.852,37955
1579807476.851,37955
1579807486.851,37955
1579807496.852,37955
1579807506.851,37955
1579807516.851,37955
1579807526.851,37955
1579807536.852,37955
1579807546.851,37956
1579807556.851,37956
1579807566.851,37956
1579807576.851,37956
1579807586.851,37956
1579807596.852,37956
1579807606.852,37956
1579807616.852,37956
1579807626.851,37956
1579807636.853,37956
1579807646.852,37956
1579807656.851,37956
1579807666.851,37956
1579807676.851,37956
1579807686.851,37956
1579807696.851,37956
1579807706.851,37956
1579807716.852,37956
1579807726.852,37956
1579807736.851,37956
1579807746.852,37956
1579807756.851,37956
1579807766.851,37956
1579807776.851,37956
1579807786.851,37956
1579807796.852,37956
1579807806.852,37956
1579807816.851,37956
1579807826.851,37956
1579807836.852,37956
1579807846.851,37956
1579807856.851,37956
1579807866.851,37957
1579807876.853,37957
1579807886.852,37957
1579807896.852,37957
1579807906.851,37957
1579807916.853,37957
1579807926.851,37957
1579807936.851,37957
1579807946.852,37957
1579807956.851,37957
1579807966.851,37957
1579807976.852,37958
1579807986.852,37958
1579807996.851,37958
1579808006.851,37958
1579808016.853,37958
1579808026.852,37958
1579808036.851,37958
1579808046.851,37958
1579808056.851,37958
1579808066.851,37958
1579808076.851,37958
1579808086.851,37958
1579808096.851,37958
1579808106.852,37958
1579808116.853,37958
1579808126.851,37958
1579808136.851,37958
1579808146.851,37958
1579808156.851,37958
1579808166.851,37958
1579808176.852,37959
1579808186.852,37959
1579808196.851,37959
1579808206.854,37959
1579808216.854,37959
1579808226.851,37959
1579808236.852,37959
1579808246.851,37959
1579808256.853,37959
1579808266.853,37959
1579808276.852,37959
1579808286.851,37959
1579808296.853,37959
1579808306.851,37959
1579808316.851,37959
1579808326.851,37959
1579808336.851,37959
1579808346.852,37959
1579808356.853,37959
1579808366.851,37959
