epoch,value
1579785157.774,0
1579785167.774,0
1579785177.774,0
1579785187.774,4
1579785197.774,21
1579785207.774,39
1579785217.774,54
1579785227.774,62
1579785247.774,102
1579785257.774,111
1579785267.774,114
1579785277.776,124
1579785287.775,139
1579785297.774,140
1579785307.774,142
1579785317.774,164
1579785327.774,165
1579785337.774,170
1579785357.774,181
1579785367.774,205
1579785377.775,224
1579785387.774,237
1579785397.774,276
1579785407.774,308
1579785417.774,312
1579785427.774,315
1579785437.774,321
1579785447.774,339
1579785457.774,341
1579785467.774,372
1579785477.775,378
1579785487.774,380
1579785497.774,380
1579785507.774,380
1579785517.774,380
1579785527.774,380
1579785537.774,381
1579785547.775,381
1579785557.774,381
1579785567.774,381
1579785577.774,381
1579785587.774,381
1579785597.774,381
1579785607.774,381
1579785617.774,381
1579785627.774,381
1579785637.774,381
1579785647.774,381
1579785657.774,381
1579785667.774,381
1579785677.774,381
1579785687.774,381
1579785697.774,381
1579785707.774,381
1579785717.774,381
1579785727.774,381
1579785737.774,381
1579785747.774,381
1579785757.775,381
1579785767.774,381
1579785777.774,381
1579785787.774,381
1579785797.774,382
1579785807.774,382
1579785817.774,382
1579785827.774,382
1579785837.774,382
1579785847.774,382
1579785857.774,382
1579785867.775,383
1579785877.774,383
1579785887.775,383
1579785897.774,383
1579785907.774,383
1579785917.774,383
1579785927.774,383
1579785937.774,383
1579785947.774,383
1579785957.774,383
1579785967.774,383
1579785977.774,383
1579785987.774,383
1579785997.774,383
1579786007.774,383
1579786017.774,383
1579786027.774,383
1579786037.774,383
1579786047.774,383
1579786057.774,383
1579786067.774,383
1579786077.774,383
1579786087.774,383
1579786097.774,383
1579786107.774,383
1579786117.774,383
1579786127.774,383
1579786137.774,384
1579786147.774,384
1579786157.774,384
1579786167.777,384
1579786177.774,384
1579786187.774,384
1579786197.774,384
1579786207.774,384
1579786217.774,384
1579786227.774,384
1579786237.774,384
1579786247.774,384
1579786257.774,384
1579786267.774,384
1579786277.774,384
1579786287.775,384
1579786297.774,384
1579786307.774,384
1579786317.774,384
1579786327.774,384
1579786337.774,384
1579786347.774,384
1579786357.774,384
1579786367.774,384
1579786377.775,384
1579786387.774,384
1579786397.775,384
1579786407.774,384
1579786417.774,384
1579786427.774,384
1579786437.774,384
1579786447.774,384
1579786457.774,384
1579786467.774,384
1579786477.774,384
1579786487.774,384
1579786497.774,384
1579786507.774,384
1579786517.774,384
1579786527.774,384
1579786537.774,384
1579786547.774,384
1579786557.774,384
1579786567.774,384
1579786577.774,384
1579786587.774,384
1579786597.774,384
1579786607.774,385
1579786617.774,385
1579786627.774,385
1579786637.774,385
1579786647.774,385
1579786657.774,385
1579786667.774,385
1579786677.774,385
1579786687.774,385
