epoch,value
1580646632.945,0
1580646642.946,0
1580646652.945,0
1580646662.949,0
1580646672.946,14
1580646682.946,30
1580646692.945,32
1580646702.945,35
1580646712.946,36
1580646722.946,39
1580646732.946,59
1580646742.945,67
1580646752.945,73
1580646762.945,73
1580646772.945,74
1580646782.945,75
1580646792.945,76
1580646802.946,76
1580646812.945,76
1580646822.945,77
1580646832.946,83
1580646842.945,85
1580646852.945,98
1580646862.945,100
1580646872.946,105
1580646882.945,107
1580646892.945,109
1580646902.945,119
1580646912.946,127
1580646922.945,129
1580646932.946,147
1580646942.945,149
1580646952.946,151
1580646962.945,152
1580646972.945,152
1580646982.945,152
1580646992.945,152
1580647002.945,152
1580647012.945,152
1580647022.945,152
1580647032.951,152
1580647042.946,152
1580647052.946,152
1580647062.945,152
1580647072.945,152
1580647082.945,153
1580647092.945,153
1580647102.951,153
1580647112.945,153
1580647122.945,153
1580647132.945,153
1580647142.945,153
1580647152.945,153
1580647162.945,153
1580647172.946,153
1580647182.945,153
1580647192.945,153
1580647202.945,153
1580647212.945,154
1580647222.945,154
1580647232.946,154
1580647242.945,154
1580647252.946,154
1580647262.945,154
1580647272.945,154
1580647282.945,154
1580647292.945,154
1580647302.945,154
1580647312.945,154
1580647322.946,154
1580647332.946,154
1580647342.946,154
1580647352.946,154
1580647362.945,154
1580647372.945,155
1580647382.945,155
1580647392.946,155
1580647402.946,155
1580647412.945,155
1580647422.945,155
1580647432.945,155
1580647442.945,155
1580647452.945,155
1580647462.945,155
1580647472.946,155
1580647482.945,155
1580647492.945,155
1580647502.946,155
1580647512.945,155
1580647522.946,155
1580647532.945,155
1580647542.946,155
1580647552.945,155
1580647562.945,155
1580647572.945,155
1580647582.945,155
1580647592.946,156
1580647602.945,156
1580647612.946,156
1580647622.945,156
1580647632.946,156
1580647642.945,156
1580647652.945,156
1580647662.946,156
1580647672.946,156
1580647682.945,156
1580647692.946,156
1580647702.946,156
1580647712.945,156
1580647722.945,156
1580647732.945,156
1580647742.946,156
1580647752.945,156
1580647762.945,157
1580647772.945,157
1580647782.946,157
1580647792.945,157
1580647802.945,157
1580647812.945,157
1580647822.946,157
1580647832.945,157
1580647842.946,157
1580647852.945,157
1580647862.946,157
1580647872.945,157
1580647882.945,157
1580647892.946,158
1580647902.946,158
1580647912.946,158
1580647922.946,158
1580647932.946,158
1580647942.945,158
1580647952.946,158
1580647962.946,158
1580647972.946,158
1580647982.945,158
1580647992.946,158
1580648002.945,158
1580648012.945,159
1580648022.945,159
1580648032.945,159
1580648042.945,159
1580648052.945,159
1580648062.945,159
1580648072.945,159
1580648082.945,159
1580648092.945,159
1580648102.946,159
1580648112.946,159
1580648122.946,159
1580648132.945,159
1580648142.945,159
1580648152.945,159
1580648162.945,159
1580648172.945,159
1580648182.946,159
1580648192.945,159
1580648202.945,159
1580648212.946,160
1580648222.946,160
1580648232.946,160
1580648242.945,160
1580648252.945,160
1580648262.946,160
1580648272.945,160
1580648282.945,160
1580648292.946,160
1580648302.946,160
1580648312.946,160
1580648322.945,160
1580648332.945,160
1580648342.945,160
1580648352.945,160
1580648362.946,160
1580648372.945,160
1580648382.945,160
1580648392.945,160
1580648402.945,160
1580648412.946,160
1580648422.945,160
1580648432.946,160
1580648442.945,161
1580648452.945,161
1580648462.945,161
1580648472.946,161
1580648482.945,161
1580648492.946,161
1580648502.945,161
1580648512.946,161
1580648522.945,161
1580648532.945,161
1580648542.946,161
1580648552.945,161
1580648562.945,161
1580648572.947,161
1580648582.945,161
1580648592.945,161
1580648602.946,161
1580648612.945,161
1580648622.945,161
1580648632.946,162
1580648642.945,162
1580648652.945,162
1580648662.945,162
1580648672.946,162
1580648682.945,162
1580648692.946,162
1580648702.946,162
1580648712.945,162
1580648722.945,162
1580648732.946,162
1580648742.946,162
1580648752.945,162
1580648762.945,162
1580648772.949,162
1580648782.946,162
1580648792.946,162
1580648802.945,162
1580648812.946,162
1580648822.946,162
1580648832.946,162
1580648842.945,163
1580648852.946,163
1580648862.945,163
1580648872.946,163
1580648882.946,163
1580648892.945,163
1580648902.946,163
1580648912.945,163
1580648922.945,163
1580648932.946,163
1580648942.945,163
1580648952.945,163
1580648962.945,163
1580648972.946,164
1580648982.945,164
1580648992.945,164
1580649002.945,164
1580649012.945,164
1580649022.945,164
1580649032.946,164
1580649042.946,164
1580649052.946,164
1580649062.945,164
1580649072.945,164
1580649082.945,164
1580649092.946,164
1580649102.946,164
1580649112.945,164
1580649122.945,165
1580649132.945,165
1580649142.945,165
1580649152.945,165
1580649162.946,165
1580649172.945,165
1580649182.946,165
1580649192.946,165
1580649202.946,165
1580649212.946,165
1580649222.946,165
1580649232.945,165
1580649242.946,166
1580649252.946,166
1580649262.946,166
1580649272.945,166
1580649282.945,166
1580649292.945,166
1580649302.945,166
1580649312.945,166
1580649322.945,166
1580649332.946,166
1580649342.945,166
1580649352.945,167
1580649362.945,167
1580649372.945,167
1580649382.946,167
1580649392.946,167
1580649402.945,167
1580649412.945,167
1580649422.945,167
1580649432.946,167
1580649442.946,167
1580649452.945,167
1580649462.945,167
1580649472.945,167
1580649482.945,167
1580649492.945,167
1580649502.945,167
1580649512.945,167
1580649522.945,167
1580649532.945,167
1580649542.945,167
1580649552.945,167
1580649562.945,167
1580649572.945,168
1580649582.946,168
1580649592.946,168
1580649602.945,168
1580649612.945,168
1580649622.945,168
1580649632.945,168
1580649642.946,168
1580649652.945,168
1580649662.945,168
1580649672.945,168
1580649682.946,168
1580649692.945,168
1580649702.945,168
1580649712.946,168
1580649722.945,168
1580649732.945,168
1580649742.946,168
1580649752.946,168
1580649762.946,168
1580649772.946,168
1580649782.945,168
1580649792.945,169
1580649802.945,169
1580649812.945,169
1580649822.945,169
1580649832.945,169
1580649842.945,169
1580649852.946,169
1580649862.945,169
1580649872.945,169
1580649882.945,169
1580649892.945,169
1580649902.946,169
1580649912.945,169
1580649922.945,169
1580649932.945,169
1580649942.946,169
1580649952.946,169
1580649962.945,169
1580649972.945,169
1580649982.945,169
1580649992.946,169
1580650002.945,169
1580650012.945,169
1580650022.945,169
1580650032.946,169
1580650042.945,169
1580650052.945,169
1580650062.946,169
1580650072.945,169
1580650082.945,169
1580650092.945,170
1580650102.945,170
1580650112.946,170
1580650122.945,170
1580650132.946,170
1580650142.946,170
1580650152.945,170
1580650162.945,170
1580650172.945,170
1580650182.945,170
1580650192.945,170
1580650202.945,170
1580650212.946,170
1580650222.945,170
1580650232.946,170
1580650242.946,170
1580650252.945,170
1580650262.945,170
1580650272.945,170
1580650282.946,170
1580650292.945,170
1580650302.945,170
1580650312.945,170
1580650322.946,170
1580650332.946,170
1580650342.945,171
1580650352.945,171
1580650362.946,171
1580650372.945,171
1580650382.945,171
1580650392.945,171
1580650402.945,171
1580650412.945,171
1580650422.945,171
1580650432.945,171
1580650442.946,171
1580650452.945,171
1580650462.945,171
1580650472.945,171
1580650482.946,171
1580650492.946,171
1580650502.945,171
1580650512.946,171
1580650532.945,171
1580650542.945,171
1580650552.945,171
1580650562.946,171
1580650572.945,171
1580650582.945,171
1580650592.946,171
1580650602.946,171
1580650612.945,171
1580650632.945,171
1580650642.945,172
1580650652.945,172
1580650662.945,172
1580650672.946,172
1580650682.946,172
1580650692.945,172
1580650702.945,172
1580650712.945,172
1580650722.945,172
1580650732.945,172
1580650742.946,172
1580650752.945,172
1580650762.946,172
1580650772.946,173
1580650782.946,173
1580650792.946,173
1580650802.945,173
1580650812.946,173
1580650822.945,173
1580650832.945,173
1580650842.945,173
1580650852.946,173
1580650862.945,173
1580650872.945,174
1580650882.946,174
1580650892.946,174
1580650902.946,174
1580650912.946,174
1580650922.946,174
1580650932.945,174
1580650942.945,174
1580650952.945,174
1580650962.946,174
1580650972.945,174
1580650982.946,174
1580650992.945,174
1580651002.945,174
1580651012.946,174
1580651022.946,175
1580651032.949,175
1580651042.945,175
1580651052.945,175
1580651062.945,175
1580651072.946,175
1580651082.945,175
1580651092.945,175
1580651102.946,175
1580651112.945,175
1580651122.945,175
1580651132.946,175
1580651142.945,175
1580651152.946,176
1580651162.945,176
1580651172.946,176
1580651182.945,176
1580651192.946,176
1580651202.945,176
1580651212.945,176
1580651222.945,176
1580651232.945,176
1580651242.946,176
1580651252.946,176
1580651262.945,176
1580651272.945,176
1580651282.946,176
1580651292.946,176
1580651302.946,177
1580651312.945,177
1580651322.946,177
1580651332.945,177
1580651342.946,177
1580651352.945,177
1580651362.945,177
1580651372.946,177
1580651382.946,177
1580651392.945,177
1580651402.945,177
1580651412.946,177
1580651422.945,177
1580651432.945,178
1580651442.946,178
1580651452.945,178
1580651462.945,178
1580651472.945,178
1580651482.945,178
1580651492.945,178
1580651502.945,178
1580651512.945,178
1580651522.945,178
1580651532.946,178
1580651542.945,178
1580651552.946,178
1580651562.945,179
1580651572.946,179
1580651582.946,179
1580651592.945,179
1580651602.946,179
1580651612.945,179
1580651622.946,179
1580651632.945,179
1580651642.951,179
1580651652.945,179
1580651662.945,179
1580651672.945,179
1580651682.946,179
1580651692.946,179
1580651702.946,179
1580651712.946,180
1580651722.945,180
1580651732.946,180
1580651742.945,180
1580651752.945,180
1580651762.946,180
1580651772.945,180
1580651782.945,180
1580651792.945,180
1580651802.946,180
1580651812.946,180
1580651822.946,180
1580651832.945,180
1580651842.945,180
1580651852.945,181
1580651862.946,181
1580651872.945,181
1580651882.946,181
1580651892.946,181
1580651902.945,181
1580651912.945,181
1580651932.945,181
1580651942.945,181
1580651952.946,181
1580651962.945,181
1580651972.945,181
1580651982.945,181
1580651992.945,181
1580652002.946,181
1580652012.946,181
1580652022.946,182
1580652032.945,182
1580652042.945,182
1580652052.945,182
1580652062.945,182
1580652072.945,182
1580652082.946,182
1580652092.945,182
1580652102.945,182
1580652112.946,182
1580652122.946,182
1580652142.946,182
1580652152.946,182
1580652162.945,182
1580652172.945,182
1580652182.945,182
1580652192.945,182
1580652202.945,183
1580652212.945,183
1580652222.945,183
1580652232.945,183
1580652242.945,183
1580652252.945,183
1580652262.945,183
1580652272.946,183
1580652282.945,183
1580652292.945,183
1580652302.946,183
1580652312.945,183
1580652322.946,183
1580652332.945,183
1580652342.945,183
1580652352.945,183
1580652362.946,183
1580652372.946,184
1580652382.946,184
1580652392.945,184
1580652402.946,184
1580652412.946,184
1580652422.945,184
1580652432.946,184
1580652442.946,184
1580652452.946,184
1580652462.946,184
1580652472.945,184
1580652482.945,184
1580652492.945,184
1580652502.945,184
1580652512.945,184
1580652522.947,184
1580652532.946,184
1580652542.945,184
1580652552.946,184
1580652562.946,184
1580652572.945,184
1580652582.945,184
1580652592.945,184
1580652602.945,184
1580652612.945,184
1580652622.945,184
1580652632.945,184
1580652642.945,184
1580652652.945,184
1580652662.945,184
1580652672.945,184
1580652682.945,184
1580652692.946,184
1580652702.945,184
1580652712.945,184
1580652722.946,184
1580652732.945,184
1580652742.946,184
1580652752.945,184
1580652762.945,184
1580652772.945,184
1580652782.946,184
1580652792.946,185
1580652812.945,185
1580652822.946,185
1580652832.945,185
1580652842.946,185
1580652852.946,185
1580652862.946,185
1580652872.945,185
1580652882.945,185
1580652892.945,185
1580652902.945,186
1580652912.945,186
1580652922.946,186
1580652932.945,186
1580652942.945,186
1580652952.946,186
1580652962.945,186
1580652972.945,186
1580652982.945,186
1580652992.946,186
1580653002.945,186
1580653012.945,187
1580653022.945,187
1580653032.945,187
1580653042.946,187
1580653052.945,187
1580653062.945,187
1580653072.945,188
1580653082.945,188
1580653092.946,188
1580653102.946,188
1580653112.946,188
1580653122.945,188
1580653132.945,188
1580653142.945,188
1580653152.945,188
1580653162.946,188
1580653172.945,188
1580653182.945,188
1580653192.945,188
1580653202.946,189
1580653212.945,189
1580653222.948,189
1580653232.945,189
1580653242.945,189
1580653252.945,189
1580653262.946,189
1580653272.945,189
1580653282.946,189
1580653292.945,189
1580653302.945,189
1580653312.946,189
1580653322.945,190
1580653332.945,190
1580653342.945,190
1580653352.945,190
1580653362.946,190
1580653372.946,190
1580653382.945,190
1580653392.945,190
1580653402.945,190
1580653412.946,190
1580653422.945,190
1580653432.949,190
1580653442.945,191
1580653452.946,191
1580653462.946,191
1580653472.945,191
1580653482.945,191
1580653492.945,191
1580653502.946,191
1580653512.945,191
1580653522.945,191
1580653532.946,191
1580653542.946,191
1580653552.945,191
1580653562.946,191
1580653572.945,191
1580653582.945,191
1580653592.945,192
1580653602.945,192
1580653612.945,192
1580653622.946,192
1580653632.945,192
1580653642.945,192
1580653652.945,192
1580653662.945,192
1580653672.945,192
1580653682.946,192
1580653692.945,192
1580653702.946,192
1580653712.946,192
1580653722.946,192
1580653732.945,192
1580653742.946,193
1580653752.946,193
1580653762.945,193
1580653772.946,193
1580653782.945,193
1580653792.945,193
1580653802.946,193
1580653812.945,193
1580653822.946,193
1580653832.945,193
1580653842.945,193
1580653852.946,193
1580653862.945,193
1580653872.945,193
1580653882.945,193
1580653892.945,193
1580653902.945,193
1580653912.945,193
1580653922.946,194
1580653932.945,194
1580653942.946,194
1580653952.946,194
1580653962.945,194
1580653972.945,194
1580653982.945,194
1580653992.945,194
1580654002.945,194
1580654012.946,194
1580654022.945,194
1580654032.946,194
1580654042.945,194
1580654052.945,194
1580654062.945,194
1580654072.945,194
1580654082.946,194
1580654092.945,194
1580654102.945,194
1580654112.945,194
1580654122.946,194
1580654132.945,194
1580654142.945,195
1580654152.945,195
1580654162.945,195
1580654172.946,195
1580654182.945,195
1580654192.946,195
1580654202.945,195
1580654212.945,195
1580654222.946,195
1580654232.945,195
1580654242.945,195
1580654252.946,195
1580654262.946,195
1580654272.945,195
1580654282.945,195
1580654292.946,195
1580654302.945,195
1580654312.946,195
1580654322.946,196
1580654332.946,196
1580654342.945,196
1580654352.946,196
1580654362.945,196
1580654372.945,196
1580654382.945,196
1580654392.946,196
1580654402.946,196
1580654412.946,196
1580654422.946,196
1580654432.945,196
1580654442.945,196
1580654452.945,196
1580654462.946,196
1580654472.945,197
1580654482.945,197
1580654492.946,197
1580654502.945,197
1580654512.945,197
1580654522.945,197
1580654532.945,197
1580654542.945,197
1580654552.945,197
1580654562.946,197
1580654572.945,197
1580654582.945,197
1580654592.945,197
1580654602.945,197
1580654612.946,197
1580654622.945,197
1580654632.945,197
1580654642.945,197
1580654652.946,197
1580654662.945,197
1580654672.945,197
1580654682.945,197
1580654692.945,198
1580654702.945,198
1580654712.945,198
1580654722.946,198
1580654732.945,198
1580654742.946,198
1580654752.945,198
1580654762.946,199
