epoch,value
1580569873.964,417089
1580569883.946,417089
1580569893.947,417089
1580569903.946,417089
1580569913.946,417089
1580569923.946,417090
1580569933.946,417090
1580569943.946,417091
1580569953.946,417091
1580569963.947,417091
1580569973.948,417091
1580569983.946,417093
1580569993.946,417093
1580570003.946,417093
1580570013.946,417093
1580570023.946,417095
1580570033.946,417095
1580570043.946,417095
1580570053.946,417096
1580570063.946,417097
1580570073.946,417097
1580570083.947,417099
1580570093.946,417101
1580570103.946,417102
1580570113.946,417103
1580570123.946,417103
1580570133.946,417105
1580570143.946,417106
1580570153.946,417106
1580570163.946,417107
1580570173.947,417108
1580570183.946,417110
1580570193.946,417110
1580570203.946,417110
1580570213.948,417110
1580570223.946,417110
1580570233.947,417110
1580570243.947,417110
1580570253.946,417110
1580570263.946,417112
1580570273.947,417112
1580570283.947,417112
1580570293.946,417112
1580570303.946,417112
1580570313.946,417112
1580570323.946,417113
1580570333.946,417113
1580570343.946,417114
1580570353.946,417115
1580570363.946,417116
1580570373.946,417117
1580570383.946,417117
1580570393.946,417118
1580570403.946,417119
1580570413.948,417120
1580570423.946,417122
1580570433.946,417124
1580570443.946,417125
1580570453.946,417126
1580570463.947,417126
1580570473.948,417128
1580570483.947,417129
1580570493.946,417130
1580570503.946,417130
1580570513.946,417130
1580570523.946,417131
1580570533.946,417133
1580570543.946,417134
1580570553.946,417135
1580570563.946,417135
1580570573.948,417136
1580570583.946,417136
1580570593.946,417136
1580570603.946,417137
1580570613.947,417137
1580570623.946,417137
1580570633.946,417138
1580570643.946,417138
1580570653.946,417139
1580570663.946,417140
1580570673.946,417141
1580570683.946,417141
1580570693.946,417141
1580570703.946,417142
1580570713.946,417143
1580570723.946,417144
1580570733.946,417145
1580570743.946,417146
1580570753.946,417146
1580570763.946,417146
1580570773.946,417147
1580570783.946,417147
1580570793.946,417148
1580570803.946,417148
1580570813.946,417149
1580570823.946,417150
1580570833.946,417151
1580570843.946,417151
1580570853.946,417152
1580570863.946,417152
1580570873.946,417153
1580570883.946,417153
1580570893.946,417153
1580570903.946,417153
1580570913.946,417153
1580570923.947,417153
1580570933.946,417154
1580570943.946,417154
1580570953.946,417155
1580570963.947,417155
1580570973.946,417157
1580570983.946,417158
1580570993.947,417158
1580571003.946,417158
1580571013.947,417159
1580571023.948,417161
1580571033.946,417162
1580571043.946,417162
1580571053.946,417162
1580571063.946,417162
1580571073.946,417163
1580571083.946,417164
1580571093.946,417165
1580571103.946,417165
1580571113.946,417166
1580571123.946,417167
1580571133.946,417167
1580571143.946,417167
1580571153.946,417167
1580571163.946,417168
1580571173.948,417168
1580571183.946,417169
1580571193.946,417169
1580571203.946,417169
1580571213.946,417169
1580571223.946,417169
1580571233.946,417170
1580571243.946,417170
1580571253.946,417171
1580571263.946,417172
1580571273.946,417172
1580571283.946,417174
1580571293.946,417174
1580571303.949,417175
1580571313.946,417176
1580571323.946,417176
1580571333.946,417177
1580571343.946,417178
1580571353.946,417178
1580571363.946,417179
1580571373.946,417179
1580571383.946,417180
1580571393.947,417180
1580571403.946,417180
1580571413.946,417180
1580571423.946,417180
1580571433.949,417181
1580571443.946,417183
1580571453.946,417184
1580571463.946,417185
1580571473.946,417186
1580571483.946,417186
1580571493.946,417187
1580571503.946,417188
1580571513.946,417188
1580571523.946,417188
1580571533.946,417189
1580571543.946,417190
1580571553.947,417191
1580571563.946,417191
1580571573.947,417192
1580571583.946,417192
1580571593.947,417194
1580571603.946,417194
1580571613.946,417196
1580571623.946,417196
1580571633.946,417198
1580571643.946,417198
1580571653.947,417199
1580571663.947,417201
1580571673.946,417201
1580571683.946,417201
1580571693.946,417202
1580571703.951,417202
1580571713.946,417203
1580571723.946,417203
1580571733.946,417203
1580571743.948,417203
1580571753.946,417204
1580571763.948,417204
1580571773.946,417204
1580571783.946,417205
1580571793.946,417206
1580571803.946,417207
1580571813.946,417208
1580571823.946,417208
1580571833.946,417208
1580571843.946,417208
1580571853.947,417208
1580571863.946,417208
1580571873.946,417208
1580571883.946,417209
1580571893.946,417210
1580571903.946,417210
1580571913.946,417211
1580571923.946,417211
1580571933.946,417211
1580571943.947,417211
1580571953.946,417211
1580571963.947,417212
1580571973.946,417213
1580571983.946,417213
1580571993.946,417213
1580572003.947,417214
1580572013.947,417216
1580572023.946,417217
1580572033.946,417218
1580572043.946,417219
1580572053.946,417219
1580572063.947,417221
1580572073.946,417221
1580572083.946,417221
1580572093.946,417221
1580572103.946,417221
1580572113.946,417222
1580572123.946,417222
1580572133.946,417224
1580572143.949,417224
1580572153.946,417224
1580572163.946,417224
1580572173.946,417224
1580572183.948,417225
1580572193.948,417226
1580572203.946,417226
1580572213.947,417227
1580572223.947,417228
1580572233.946,417228
1580572243.947,417230
1580572253.946,417231
1580572263.946,417232
1580572273.946,417232
1580572283.946,417233
1580572293.947,417233
1580572303.947,417233
1580572313.946,417234
1580572323.946,417236
1580572333.946,417236
1580572343.946,417237
1580572353.946,417238
1580572363.946,417238
1580572373.947,417238
1580572383.946,417238
1580572393.946,417238
1580572403.946,417238
1580572413.947,417238
1580572423.946,417239
1580572433.946,417241
1580572443.946,417241
1580572453.946,417241
1580572463.947,417242
1580572473.946,417242
1580572483.946,417242
1580572493.946,417243
1580572503.946,417243
1580572513.946,417244
1580572523.946,417244
1580572533.946,417244
1580572543.946,417244
1580572553.946,417244
1580572563.947,417244
1580572573.947,417246
1580572583.947,417246
1580572593.949,417248
1580572603.947,417248
1580572613.947,417249
1580572623.946,417249
1580572633.946,417250
1580572643.947,417251
1580572653.946,417251
1580572663.946,417252
1580572673.946,417254
1580572683.946,417256
1580572693.946,417257
1580572703.946,417257
1580572713.946,417258
1580572723.946,417260
1580572733.946,417260
1580572743.946,417260
1580572753.946,417261
1580572763.946,417262
1580572773.946,417262
1580572783.947,417262
1580572793.946,417262
1580572803.946,417262
1580572813.946,417262
1580572823.948,417263
1580572833.947,417263
1580572843.947,417264
1580572853.946,417266
1580572863.946,417267
1580572873.948,417268
1580572883.946,417269
1580572893.946,417269
1580572903.947,417269
1580572913.946,417269
1580572923.946,417270
1580572933.946,417270
1580572943.946,417271
1580572953.946,417271
1580572963.946,417272
1580572973.947,417272
1580572983.946,417272
1580572993.946,417273
1580573003.947,417274
1580573013.947,417274
1580573023.946,417274
1580573033.947,417274
1580573043.946,417274
1580573053.946,417274
1580573063.946,417274
1580573073.947,417276
1580573083.946,417276
1580573093.946,417276
1580573103.946,417276
1580573113.946,417277
1580573123.946,417277
1580573133.946,417277
1580573143.947,417278
1580573153.948,417278
1580573163.946,417278
1580573173.946,417278
1580573183.946,417278
1580573193.946,417279
1580573203.946,417282
1580573213.946,417283
1580573223.946,417283
1580573233.946,417283
1580573243.946,417285
1580573253.946,417286
1580573263.946,417287
1580573273.953,417287
1580573283.946,417287
1580573293.946,417289
1580573303.946,417290
1580573313.948,417291
1580573323.946,417292
1580573333.947,417292
1580573343.946,417292
1580573353.946,417293
1580573363.946,417293
1580573373.946,417294
1580573383.946,417295
1580573393.947,417296
1580573403.946,417296
1580573413.946,417297
1580573423.946,417297
1580573433.946,417298
1580573443.946,417298
1580573453.946,417298
1580573463.946,417298
1580573473.946,417298
1580573483.947,417300
1580573493.946,417300
1580573503.946,417300
1580573513.946,417302
1580573523.946,417302
1580573533.946,417303
1580573543.946,417304
1580573553.947,417304
1580573563.949,417305
1580573573.946,417307
1580573583.947,417308
1580573593.946,417308
1580573603.946,417308
1580573613.946,417308
1580573623.946,417308
1580573633.946,417308
1580573643.946,417310
1580573653.946,417311
1580573663.948,417312
1580573673.946,417312
1580573683.946,417313
1580573693.951,417313
1580573703.949,417315
1580573713.946,417316
1580573723.946,417316
1580573733.952,417316
1580573743.949,417316
1580573753.946,417317
1580573763.946,417317
1580573773.946,417317
1580573783.946,417318
1580573793.946,417319
1580573803.947,417320
1580573813.946,417322
1580573823.946,417322
1580573833.946,417324
1580573843.947,417324
1580573853.946,417324
1580573863.946,417325
1580573873.946,417325
1580573883.946,417325
1580573893.946,417326
1580573903.948,417326
1580573913.946,417326
1580573923.946,417328
1580573933.946,417330
1580573943.946,417331
1580573953.946,417332
1580573963.946,417333
1580573973.947,417334
1580573983.946,417334
1580573993.946,417335
1580574003.946,417335
1580574013.948,417336
1580574023.946,417336
1580574033.946,417336
1580574043.946,417337
1580574053.947,417337
1580574063.946,417338
1580574073.946,417338
1580574083.947,417338
1580574093.947,417338
1580574103.948,417339
1580574113.946,417340
1580574123.946,417341
1580574133.946,417342
1580574143.946,417342
1580574153.947,417342
1580574163.946,417343
1580574173.946,417344
1580574183.946,417346
1580574193.947,417346
1580574203.947,417346
1580574213.946,417347
1580574223.947,417348
1580574233.946,417350
1580574243.946,417350
1580574253.946,417350
1580574263.946,417351
1580574273.946,417352
1580574283.950,417352
1580574293.947,417352
1580574303.946,417352
1580574313.946,417353
1580574323.946,417354
1580574333.946,417355
1580574343.946,417356
1580574353.946,417356
1580574363.946,417356
1580574373.946,417356
1580574383.946,417356
1580574393.947,417356
1580574403.946,417357
1580574413.947,417358
1580574423.946,417358
1580574433.946,417358
1580574443.946,417359
1580574453.947,417359
1580574463.946,417359
1580574473.947,417360
1580574483.946,417360
1580574493.948,417362
1580574503.946,417362
1580574513.946,417362
1580574523.946,417363
1580574533.946,417363
1580574543.946,417363
1580574553.946,417364
1580574563.946,417365
1580574573.946,417366
1580574583.946,417366
1580574593.946,417366
1580574603.946,417366
1580574613.946,417368
1580574623.946,417368
1580574633.946,417368
1580574643.946,417370
1580574653.947,417372
1580574663.946,417373
1580574673.947,417373
1580574683.946,417373
1580574693.946,417373
1580574703.946,417374
1580574713.946,417376
1580574723.946,417376
1580574733.946,417376
1580574743.946,417377
1580574753.946,417377
1580574763.946,417377
1580574773.946,417378
1580574783.946,417378
1580574793.946,417379
1580574803.946,417379
1580574813.946,417379
1580574823.947,417380
1580574833.946,417380
1580574843.946,417380
1580574853.946,417381
1580574863.946,417383
1580574873.946,417384
1580574883.946,417385
1580574893.946,417386
1580574903.946,417386
1580574913.947,417387
1580574923.946,417387
1580574933.948,417389
1580574943.946,417390
1580574953.946,417391
1580574963.947,417391
1580574973.946,417392
1580574983.946,417392
1580574993.946,417394
1580575003.946,417395
1580575013.946,417396
1580575023.946,417396
1580575033.947,417398
1580575043.949,417399
1580575053.946,417399
1580575063.946,417399
1580575073.946,417400
1580575083.946,417400
1580575093.946,417401
1580575103.947,417402
1580575113.948,417402
1580575123.946,417403
1580575133.946,417404
1580575143.946,417404
1580575153.946,417405
1580575163.946,417406
1580575173.948,417406
1580575183.946,417408
1580575193.947,417408
1580575203.946,417410
1580575213.946,417410
1580575223.947,417410
1580575233.946,417410
1580575243.946,417411
1580575253.946,417412
1580575263.946,417412
1580575273.946,417413
1580575283.946,417413
1580575293.946,417413
1580575303.947,417416
1580575313.946,417416
1580575323.947,417416
1580575333.947,417418
1580575343.946,417419
1580575353.947,417419
1580575363.946,417419
1580575373.946,417420
1580575383.947,417420
1580575393.946,417420
1580575403.946,417423
1580575413.946,417423
1580575423.946,417424
1580575433.946,417426
1580575443.946,417428
1580575453.946,417429
1580575463.946,417429
1580575473.946,417430
1580575483.946,417430
1580575493.946,417430
1580575503.946,417432
1580575513.946,417434
1580575523.946,417435
1580575533.946,417435
1580575543.946,417436
1580575553.946,417436
1580575563.946,417437
1580575573.946,417437
1580575583.946,417438
1580575593.946,417438
1580575603.946,417439
1580575613.947,417440
1580575623.946,417440
1580575633.947,417440
1580575643.946,417440
1580575653.947,417440
1580575663.946,417441
1580575673.946,417442
1580575683.946,417443
1580575693.946,417444
1580575703.946,417445
1580575713.946,417445
1580575723.946,417445
1580575733.946,417446
1580575743.946,417446
1580575753.946,417448
1580575763.947,417449
1580575773.946,417449
1580575783.946,417449
1580575793.946,417450
1580575803.946,417450
1580575813.950,417451
1580575823.946,417451
1580575833.946,417452
1580575843.946,417453
1580575853.946,417453
1580575863.946,417454
1580575873.946,417454
1580575883.946,417454
1580575893.950,417456
1580575903.947,417457
1580575913.947,417458
1580575923.946,417458
1580575933.948,417460
1580575943.947,417460
1580575953.946,417460
1580575963.947,417461
1580575973.947,417461
1580575983.947,417461
1580575993.947,417461
1580576003.946,417462
1580576013.946,417462
1580576023.946,417462
1580576033.946,417462
1580576043.946,417463
1580576053.946,417463
1580576063.946,417463
1580576073.946,417464
1580576083.948,417465
1580576093.946,417465
1580576103.947,417465
1580576113.946,417466
1580576123.946,417467
1580576133.946,417467
1580576143.947,417467
1580576153.946,417467
1580576163.946,417467
1580576173.946,417467
1580576183.946,417469
1580576193.946,417469
1580576203.946,417469
1580576213.946,417471
1580576223.946,417471
1580576233.946,417472
1580576243.946,417472
1580576253.947,417472
1580576263.947,417472
1580576273.946,417472
1580576283.946,417474
1580576293.947,417475
1580576303.946,417476
1580576313.946,417476
1580576323.947,417476
1580576333.947,417478
1580576343.947,417478
1580576353.948,417478
1580576363.946,417478
1580576373.946,417478
1580576383.946,417478
1580576393.946,417479
1580576403.946,417481
1580576413.946,417481
1580576423.948,417481
1580576433.946,417482
1580576443.946,417482
1580576453.946,417483
1580576463.946,417483
1580576473.946,417484
1580576483.946,417484
1580576493.946,417484
1580576503.946,417484
1580576513.946,417487
1580576523.947,417488
1580576533.946,417489
1580576543.946,417490
1580576553.946,417491
1580576563.946,417492
1580576573.947,417492
1580576583.947,417493
1580576593.946,417493
1580576603.946,417494
1580576613.947,417494
1580576623.949,417494
1580576633.946,417495
1580576643.946,417495
1580576653.948,417495
1580576663.946,417495
1580576673.946,417495
1580576683.946,417496
1580576693.946,417496
1580576703.946,417496
1580576713.946,417496
1580576723.946,417496
1580576733.946,417497
1580576743.947,417497
1580576753.947,417498
1580576763.946,417498
1580576773.946,417498
1580576783.947,417500
1580576793.947,417500
1580576803.947,417500
1580576813.946,417501
1580576823.948,417501
1580576833.947,417501
1580576843.946,417501
1580576853.949,417502
1580576863.946,417502
1580576873.946,417502
1580576883.947,417503
1580576893.949,417503
1580576903.946,417505
1580576913.946,417506
1580576923.947,417506
1580576933.946,417507
1580576943.946,417507
1580576953.946,417508
1580576963.947,417509
1580576973.948,417509
1580576983.946,417509
1580576993.946,417509
1580577003.946,417511
1580577013.947,417511
1580577023.946,417513
1580577033.947,417513
1580577043.948,417513
1580577053.948,417515
1580577063.948,417516
1580577073.946,417518
1580577083.946,417518
1580577093.948,417519
1580577103.947,417520
1580577113.946,417520
1580577123.946,417520
1580577133.946,417523
1580577143.946,417525
1580577153.946,417525
1580577163.946,417526
1580577173.946,417526
1580577183.946,417528
1580577193.946,417528
1580577203.946,417529
1580577213.946,417530
1580577223.947,417531
1580577233.947,417532
1580577243.946,417533
1580577253.946,417533
1580577263.946,417535
1580577273.946,417535
1580577283.949,417535
1580577293.946,417537
1580577303.946,417538
1580577313.946,417538
1580577323.946,417539
1580577333.946,417539
1580577343.946,417540
1580577353.946,417542
1580577363.946,417544
1580577373.946,417544
1580577383.946,417546
1580577393.947,417546
1580577403.946,417546
1580577413.949,417546
1580577423.946,417547
1580577433.946,417548
1580577443.946,417549
1580577453.946,417550
1580577463.947,417551
1580577473.946,417552
1580577483.946,417553
1580577493.949,417553
1580577503.946,417554
1580577513.946,417554
1580577523.946,417554
1580577533.946,417556
1580577543.946,417558
1580577553.946,417558
1580577563.946,417558
1580577573.946,417559
1580577583.946,417559
1580577593.946,417561
1580577603.947,417562
1580577613.946,417562
1580577623.946,417563
1580577633.946,417563
1580577643.946,417563
1580577653.946,417565
1580577663.946,417565
1580577673.946,417566
1580577683.946,417567
1580577693.946,417567
1580577703.946,417567
1580577713.946,417568
1580577723.946,417568
1580577733.946,417569
1580577743.948,417570
1580577753.946,417570
1580577763.946,417570
1580577773.946,417571
1580577783.948,417571
1580577793.946,417571
1580577803.946,417571
1580577813.946,417571
1580577823.946,417573
1580577833.946,417573
1580577843.946,417573
1580577853.946,417574
1580577863.947,417574
1580577873.948,417574
1580577883.946,417574
1580577893.946,417576
1580577903.946,417576
1580577913.947,417576
1580577923.947,417578
1580577933.947,417579
1580577943.946,417580
1580577953.946,417582
1580577963.946,417582
1580577973.946,417582
1580577983.946,417584
1580577993.946,417585
1580578003.946,417586
1580578013.946,417586
1580578023.946,417587
1580578033.946,417588
