epoch,value
1580552525.969,0
1580552535.969,0
1580552545.969,8
1580552555.969,9
1580552565.969,10
1580552575.969,11
1580552585.969,12
1580552595.969,13
1580552605.969,14
1580552615.969,15
1580552625.969,16
1580552635.969,17
1580552645.969,17
1580552655.969,18
1580552665.969,20
1580552675.969,20
1580552685.969,21
1580552695.969,22
1580552705.969,22
1580552715.969,23
1580552725.969,24
1580552735.969,31
1580552745.969,31
1580552755.969,32
1580552765.969,32
1580552775.969,32
1580552785.969,33
1580552795.969,33
1580552805.969,34
1580552815.969,34
1580552825.969,35
1580552835.969,35
1580552845.969,35
1580552855.969,35
1580552865.969,35
1580552875.969,35
1580552885.969,36
1580552895.969,36
1580552905.969,36
1580552915.969,36
1580552925.969,36
1580552935.969,36
1580552945.969,36
1580552955.969,36
1580552965.969,36
1580552975.969,36
1580552985.969,36
1580552995.969,36
1580553005.969,36
1580553015.969,36
1580553025.969,36
1580553035.969,36
1580553045.969,36
1580553055.969,36
1580553065.969,36
1580553075.969,36
1580553085.969,36
1580553095.969,36
1580553105.969,36
1580553115.969,36
1580553125.969,36
1580553135.969,36
1580553145.969,36
1580553155.969,36
1580553165.969,36
1580553175.969,36
1580553185.969,36
1580553195.969,36
1580553205.969,36
1580553215.971,36
1580553225.969,36
1580553235.969,36
1580553245.969,36
1580553255.969,36
1580553265.969,36
1580553275.969,36
1580553285.969,36
1580553295.969,36
1580553305.969,36
1580553315.969,37
1580553325.969,37
1580553335.969,37
1580553345.969,37
1580553355.969,37
1580553365.969,37
1580553375.969,37
1580553385.969,37
1580553395.969,37
1580553405.969,37
1580553415.969,37
1580553425.969,37
1580553435.969,37
1580553445.969,37
1580553455.969,37
1580553465.971,37
1580553475.969,37
1580553485.969,37
1580553495.969,37
1580553505.969,37
1580553515.971,37
1580553535.969,37
1580553545.969,37
1580553555.969,37
1580553565.969,37
1580553575.969,37
1580553585.969,38
1580553595.969,38
1580553605.969,38
1580553615.969,38
1580553625.969,38
1580553635.969,38
1580553645.969,38
1580553655.969,38
1580553665.969,38
1580553675.969,38
1580553685.969,38
1580553695.969,38
1580553705.969,38
1580553715.969,38
1580553725.969,38
1580553735.969,38
1580553745.969,38
1580553755.969,38
1580553765.969,38
1580553775.969,38
1580553785.969,38
1580553795.969,38
1580553805.969,38
1580553815.969,38
1580553825.969,38
1580553835.969,38
1580553845.969,38
1580553855.969,38
1580553865.969,38
1580553875.969,38
1580553885.969,38
1580553895.969,39
1580553905.969,39
1580553915.969,39
1580553925.969,39
1580553935.969,39
1580553945.969,39
1580553955.969,39
1580553965.969,39
1580553975.969,39
1580553985.969,39
1580553995.969,39
1580554005.969,39
1580554015.969,39
1580554025.969,39
1580554035.971,39
1580554045.969,39
1580554055.969,40
1580554065.969,40
1580554075.969,40
1580554085.969,40
1580554095.969,40
1580554105.969,40
1580554115.969,40
1580554125.969,40
1580554135.969,40
1580554145.969,40
1580554155.969,40
1580554165.969,40
1580554175.969,40
1580554185.969,40
1580554195.969,40
1580554205.969,40
1580554215.969,40
1580554225.969,40
1580554235.969,40
1580554245.969,40
1580554255.969,40
1580554265.969,40
1580554275.969,41
1580554285.969,41
1580554295.969,41
1580554305.969,41
1580554315.969,41
1580554325.969,41
1580554335.969,41
1580554345.969,41
1580554355.969,41
1580554365.969,41
1580554375.969,41
1580554385.969,41
1580554395.969,41
1580554405.969,41
1580554415.969,41
1580554425.969,41
1580554435.969,41
1580554445.969,41
1580554455.969,41
1580554465.969,41
1580554475.969,41
1580554485.969,41
1580554495.969,41
1580554505.969,41
1580554515.969,41
1580554525.969,41
1580554535.969,41
1580554545.969,41
1580554555.969,41
1580554565.969,41
1580554575.969,41
1580554585.969,41
1580554595.969,41
1580554605.969,42
1580554615.969,42
1580554635.969,42
1580554645.969,42
1580554655.969,42
1580554665.969,42
1580554675.969,42
1580554685.969,42
1580554695.969,42
1580554705.969,42
1580554715.969,42
1580554725.969,42
1580554735.969,42
1580554745.969,42
1580554755.969,42
1580554765.969,42
1580554775.969,43
1580554785.969,43
1580554795.969,43
1580554805.969,43
1580554815.969,43
1580554825.969,43
1580554835.969,43
1580554845.969,43
1580554855.969,43
1580554865.969,43
1580554875.969,43
1580554885.969,43
1580554895.969,43
1580554905.969,43
1580554915.969,43
1580554925.969,43
1580554935.969,43
1580554945.969,43
1580554955.969,43
1580554965.969,43
1580554975.969,43
1580554985.969,43
1580554995.969,43
1580555005.969,43
1580555015.969,43
1580555025.969,43
1580555035.969,44
1580555055.969,44
1580555065.969,44
1580555075.969,44
1580555085.969,44
1580555095.969,44
1580555105.969,44
1580555115.969,44
1580555125.969,44
1580555135.969,44
1580555145.969,44
1580555155.969,44
1580555165.969,44
1580555175.969,44
1580555185.969,44
1580555195.969,44
1580555205.969,44
1580555215.969,44
1580555225.969,44
1580555235.969,45
1580555245.969,45
1580555255.969,45
1580555265.969,45
1580555275.969,45
1580555285.969,45
1580555295.969,45
1580555305.969,45
1580555315.969,45
1580555325.969,45
1580555335.969,45
1580555345.969,45
1580555355.969,45
1580555365.969,45
1580555375.969,45
1580555385.969,45
1580555395.969,45
1580555405.969,45
1580555415.969,45
1580555425.969,45
1580555435.969,45
1580555445.969,45
1580555455.969,45
1580555465.969,45
1580555475.969,45
1580555485.969,45
1580555495.969,45
1580555505.969,45
1580555515.969,45
1580555525.969,45
1580555535.969,45
1580555545.969,45
1580555555.969,45
1580555565.969,46
1580555575.969,46
1580555585.969,46
1580555595.969,46
1580555605.969,46
1580555615.969,46
1580555625.969,46
1580555635.969,46
1580555645.969,46
1580555655.969,46
1580555665.971,46
1580555675.969,46
1580555685.969,46
1580555695.969,46
1580555705.971,46
1580555715.969,46
1580555725.969,46
1580555735.969,46
1580555745.969,46
1580555755.969,46
1580555765.969,46
1580555775.969,46
1580555785.969,46
1580555795.969,46
1580555805.969,46
1580555815.969,46
1580555825.969,46
1580555835.969,47
1580555845.969,47
1580555855.969,47
1580555865.969,47
1580555875.969,47
1580555885.969,47
1580555895.969,47
1580555905.969,47
1580555915.969,47
1580555925.969,47
1580555935.969,47
1580555945.969,47
1580555955.969,47
1580555965.969,47
1580555975.969,47
1580555985.969,47
1580555995.969,47
1580556005.969,47
1580556015.969,47
1580556025.969,47
1580556035.969,47
1580556045.969,48
1580556055.969,48
1580556065.969,48
1580556075.969,48
1580556085.969,48
1580556095.969,48
1580556105.969,48
1580556115.969,48
1580556125.969,48
1580556135.969,48
1580556145.969,48
1580556155.969,48
1580556165.969,48
1580556175.969,48
1580556185.969,48
1580556195.969,48
1580556205.969,48
1580556215.969,48
1580556225.969,48
1580556235.969,48
1580556245.969,48
1580556255.969,48
1580556265.969,49
1580556275.969,49
1580556285.969,49
1580556295.969,49
1580556305.969,49
1580556315.969,49
1580556325.969,49
1580556335.969,49
1580556345.969,49
1580556355.969,50
1580556365.969,50
1580556375.969,50
1580556385.969,50
1580556395.969,50
1580556405.969,50
1580556415.969,51
1580556425.969,51
1580556435.969,51
1580556445.969,51
1580556455.969,51
1580556465.969,51
1580556475.969,51
1580556485.969,51
1580556495.969,51
1580556505.969,51
1580556515.969,52
1580556525.969,52
1580556535.969,52
1580556545.969,52
1580556555.969,52
1580556565.969,52
1580556575.969,52
1580556585.969,52
1580556595.969,52
1580556605.970,52
1580556615.969,52
1580556625.969,52
1580556635.969,52
1580556645.969,53
1580556655.969,53
1580556665.969,53
1580556675.969,53
1580556685.969,53
1580556695.969,53
1580556705.969,53
1580556715.969,53
1580556725.969,53
1580556735.969,54
1580556745.969,54
1580556755.969,54
1580556765.970,54
1580556775.969,54
1580556785.969,54
1580556795.969,55
1580556805.969,55
1580556815.969,55
1580556825.969,55
1580556835.969,55
1580556845.969,55
1580556855.969,56
1580556865.969,56
1580556875.969,56
1580556885.969,56
1580556895.969,56
1580556905.969,56
1580556915.969,56
1580556925.969,56
1580556935.969,57
1580556945.969,57
1580556955.969,57
1580556965.969,57
1580556975.969,57
1580556985.969,57
1580556995.969,57
1580557005.969,57
1580557015.969,57
1580557025.969,57
1580557035.969,57
1580557045.969,58
1580557055.969,58
1580557065.969,58
1580557075.969,58
1580557085.969,58
1580557095.969,58
1580557105.969,58
1580557115.969,58
1580557125.969,59
1580557135.969,59
1580557145.969,59
1580557155.969,59
1580557165.969,59
1580557175.969,59
1580557185.969,59
1580557195.969,60
1580557205.969,60
1580557215.969,60
1580557225.969,60
1580557235.969,60
1580557245.969,60
1580557255.969,60
1580557265.969,60
1580557275.969,60
1580557285.969,60
1580557295.969,60
1580557305.969,61
1580557315.969,61
1580557325.969,61
1580557335.969,61
1580557345.969,61
1580557355.969,61
1580557365.969,61
1580557375.969,61
1580557385.969,61
1580557395.969,61
1580557405.969,61
1580557415.969,61
1580557425.969,61
1580557435.969,61
1580557445.969,61
1580557455.969,61
1580557465.969,61
1580557475.969,61
1580557485.969,62
1580557495.969,62
1580557505.969,62
1580557515.969,62
1580557525.969,62
1580557535.969,62
1580557545.969,62
1580557555.969,62
1580557565.969,62
1580557575.969,62
1580557585.969,62
1580557595.969,62
1580557605.969,62
1580557615.969,62
1580557625.971,62
1580557635.969,62
1580557645.969,62
1580557655.969,62
1580557665.969,62
1580557675.969,62
1580557685.969,62
1580557695.969,63
1580557705.969,63
1580557715.969,63
1580557725.969,63
1580557735.969,63
1580557745.969,63
1580557755.969,63
1580557765.969,63
1580557775.969,63
1580557785.969,63
1580557795.969,63
1580557805.969,63
1580557815.969,63
1580557825.969,63
1580557835.969,63
1580557845.969,63
1580557855.969,63
1580557865.969,63
1580557875.969,63
1580557885.969,63
1580557895.969,63
1580557905.969,63
1580557915.969,63
1580557925.969,63
1580557935.969,63
1580557945.969,63
1580557955.969,63
1580557965.969,63
1580557975.969,63
1580557985.969,63
1580557995.969,64
1580558005.969,64
1580558015.969,64
1580558025.969,64
1580558035.969,64
1580558045.969,64
1580558055.969,64
1580558065.969,64
1580558075.969,64
1580558085.969,64
1580558095.969,64
1580558105.969,64
1580558115.969,64
1580558125.969,64
1580558135.969,64
1580558145.969,64
1580558155.969,64
1580558165.969,64
1580558175.969,64
1580558185.969,64
1580558195.969,64
1580558205.969,64
1580558215.969,64
1580558225.969,64
1580558235.969,64
1580558245.969,64
1580558255.969,64
1580558265.969,64
1580558275.969,64
1580558285.969,64
1580558295.969,64
1580558305.969,64
1580558315.969,65
1580558325.969,65
1580558335.969,65
1580558345.969,65
1580558355.969,65
1580558365.969,65
1580558375.969,65
1580558385.969,65
1580558395.969,65
1580558405.969,65
1580558415.969,65
1580558425.969,65
1580558435.969,65
1580558445.969,65
1580558455.969,65
1580558465.969,65
1580558475.969,65
1580558485.969,66
1580558495.969,66
1580558505.969,66
1580558515.969,66
1580558525.969,66
1580558535.969,66
1580558545.969,66
1580558555.969,66
1580558565.969,66
1580558575.969,66
1580558585.969,66
1580558595.969,66
1580558605.969,66
1580558615.969,66
1580558625.969,66
1580558635.969,66
1580558645.969,66
1580558655.969,67
1580558665.969,67
1580558675.969,67
1580558685.969,67
1580558695.969,67
1580558705.969,67
1580558715.969,67
1580558725.969,67
1580558735.969,67
1580558745.969,67
1580558755.969,67
1580558765.969,67
1580558775.969,67
1580558785.969,67
1580558795.969,67
1580558805.969,67
1580558815.969,68
1580558825.969,68
1580558835.969,68
1580558845.969,68
1580558855.969,68
1580558865.969,68
1580558875.969,68
1580558885.969,68
1580558895.969,68
1580558905.969,68
1580558915.969,68
1580558925.969,68
1580558935.969,69
1580558945.969,69
1580558955.969,69
1580558965.969,69
1580558975.969,69
1580558985.969,69
1580558995.969,69
1580559005.969,69
1580559015.969,70
1580559025.969,70
1580559035.969,70
1580559045.969,70
1580559055.969,70
1580559065.969,70
1580559075.969,70
1580559085.970,70
1580559095.969,70
1580559105.969,70
1580559115.969,70
1580559125.969,70
1580559135.969,70
1580559145.969,71
1580559155.969,71
1580559165.969,71
1580559175.969,71
1580559185.969,71
1580559195.969,71
1580559205.969,71
1580559215.969,71
1580559225.969,71
1580559235.969,71
1580559245.969,71
1580559255.969,71
1580559265.969,71
1580559275.969,72
1580559285.969,72
1580559295.969,72
1580559305.969,72
1580559315.970,72
1580559325.969,72
1580559335.969,73
1580559345.969,73
1580559355.969,73
1580559365.969,73
1580559375.969,73
1580559385.969,73
1580559395.969,73
1580559405.969,73
1580559415.969,73
1580559425.969,74
1580559435.969,74
1580559445.969,74
1580559455.969,74
1580559465.969,75
1580559475.969,75
1580559485.969,75
1580559495.969,75
1580559505.971,76
1580559515.969,76
1580559525.969,76
1580559535.969,76
1580559545.969,77
1580559555.969,77
1580559565.969,77
1580559575.969,77
1580559585.969,77
1580559595.969,77
1580559605.969,78
1580559615.969,78
1580559625.969,78
1580559635.969,78
1580559645.969,78
1580559655.969,78
1580559665.971,78
1580559675.969,78
1580559685.969,78
1580559695.969,78
1580559705.969,78
1580559715.969,79
1580559725.971,79
1580559735.969,79
1580559745.969,79
1580559755.969,79
1580559765.969,80
1580559775.969,80
1580559785.969,80
1580559795.969,80
1580559805.969,80
1580559815.969,80
1580559825.969,80
1580559835.969,80
1580559845.969,80
1580559855.969,80
1580559865.969,80
1580559875.969,80
1580559885.969,80
1580559895.969,80
1580559905.969,80
1580559915.969,80
1580559925.969,80
1580559935.969,80
1580559945.969,81
1580559955.969,81
1580559965.969,81
1580559975.969,81
1580559985.969,81
1580559995.969,81
1580560005.969,81
1580560015.971,81
1580560025.969,81
1580560035.969,81
1580560045.969,81
1580560055.969,81
1580560065.969,81
1580560075.970,82
1580560085.969,82
1580560095.969,83
1580560105.969,83
1580560115.969,83
1580560125.969,83
1580560135.969,83
1580560145.969,83
1580560155.969,83
1580560165.969,83
1580560175.969,83
1580560185.969,83
1580560195.969,83
1580560205.969,83
1580560215.969,83
1580560225.969,83
1580560235.969,83
1580560245.969,83
1580560255.969,84
1580560265.969,84
1580560275.969,84
1580560285.969,84
1580560295.969,84
1580560305.969,84
1580560315.969,84
1580560325.969,85
1580560335.969,85
1580560345.969,85
1580560355.969,85
1580560365.969,85
1580560375.969,85
1580560385.969,85
1580560395.969,85
1580560405.969,85
1580560415.969,85
1580560425.969,85
1580560435.969,85
1580560445.969,86
1580560455.969,86
1580560465.969,86
1580560475.969,86
1580560485.969,86
1580560495.969,86
1580560505.969,86
1580560515.969,86
1580560525.969,87
1580560535.969,87
1580560545.969,87
1580560555.969,87
1580560565.969,87
1580560575.969,87
1580560585.969,87
1580560595.969,87
1580560605.969,87
1580560615.969,87
1580560625.969,87
1580560635.969,88
1580560645.969,88
