epoch,value
1580423019.761,0
1580423029.761,0
1580423039.761,0
1580423049.761,0
1580423059.761,2
1580423069.761,4
1580423079.761,5
1580423089.761,17
1580423099.761,35
1580423109.761,49
1580423119.761,62
1580423129.761,86
1580423139.761,104
1580423149.761,113
1580423159.761,125
1580423169.761,126
1580423179.761,134
1580423189.761,137
1580423199.761,139
1580423209.761,142
1580423219.761,144
1580423229.761,152
1580423239.761,152
1580423249.761,152
1580423259.761,153
1580423269.761,153
1580423279.761,153
1580423289.761,153
1580423309.761,153
1580423319.761,153
1580423329.761,153
1580423339.761,153
1580423349.761,153
1580423359.761,153
1580423369.761,153
1580423379.761,153
1580423389.761,153
1580423399.761,153
1580423409.761,153
1580423419.761,153
1580423429.761,153
1580423439.761,153
1580423449.761,153
1580423459.761,153
1580423469.761,153
1580423479.761,153
1580423489.761,153
1580423499.761,153
1580423509.761,153
1580423519.761,153
1580423529.761,153
1580423539.761,153
1580423549.761,153
1580423559.761,153
1580423569.761,153
1580423579.761,153
1580423589.761,153
1580423599.761,154
1580423609.762,154
1580423619.761,154
1580423629.767,154
1580423639.761,154
1580423649.761,154
1580423659.761,154
1580423669.761,154
1580423679.761,154
1580423689.761,154
1580423699.761,154
1580423709.761,154
1580423719.761,154
1580423729.761,154
1580423739.761,154
1580423749.761,154
1580423759.761,154
1580423769.761,154
1580423779.761,154
1580423789.761,155
1580423799.761,155
1580423809.761,155
1580423819.761,155
1580423829.761,155
1580423839.761,155
1580423849.761,155
1580423859.761,155
1580423869.761,155
1580423879.761,156
1580423889.761,156
1580423899.761,156
1580423909.761,156
1580423919.761,156
1580423929.761,156
1580423939.761,157
1580423949.763,157
1580423959.761,157
1580423969.761,157
1580423979.761,157
1580423989.761,157
1580423999.761,157
1580424009.761,157
1580424019.761,157
1580424029.761,157
1580424039.761,157
1580424049.761,157
1580424059.761,157
1580424069.761,158
1580424079.761,158
1580424089.761,158
1580424099.761,158
1580424109.761,158
1580424119.761,158
1580424129.761,158
1580424139.761,158
1580424149.761,158
1580424159.761,158
1580424169.761,158
1580424179.761,158
1580424189.761,158
1580424199.761,158
1580424209.761,158
1580424219.761,158
1580424229.761,158
1580424239.761,158
1580424249.761,158
1580424259.761,158
1580424269.761,158
1580424279.761,159
1580424289.761,159
1580424299.761,159
1580424309.761,159
1580424319.761,159
1580424329.761,159
1580424339.761,159
1580424349.761,159
1580424359.761,159
1580424369.761,159
1580424379.761,159
1580424389.761,160
1580424399.761,160
1580424409.761,160
1580424419.761,160
1580424429.761,160
1580424439.761,160
1580424449.761,160
1580424459.761,160
1580424469.761,160
1580424479.761,160
1580424489.763,160
1580424499.761,160
1580424509.761,160
1580424519.761,160
1580424529.761,160
1580424539.761,160
1580424549.761,160
1580424559.761,160
1580424569.761,160
1580424579.761,160
1580424589.761,160
1580424599.761,160
1580424609.761,161
1580424619.761,161
1580424629.761,161
1580424639.761,161
1580424649.761,161
1580424659.761,161
1580424669.761,161
1580424679.761,161
1580424689.761,161
1580424699.761,161
1580424709.761,161
1580424719.761,161
1580424729.761,161
1580424739.761,161
1580424749.761,161
1580424759.761,161
1580424769.761,161
1580424779.761,161
1580424789.761,161
1580424799.761,161
1580424809.761,161
1580424819.762,161
1580424829.761,161
1580424839.761,161
1580424849.761,161
1580424859.761,161
1580424869.761,162
1580424879.761,162
1580424889.761,162
1580424899.761,162
1580424909.761,163
1580424919.761,163
1580424929.761,163
1580424939.761,163
1580424949.761,163
1580424959.761,163
1580424969.761,163
1580424979.761,163
1580424989.761,163
1580424999.761,163
1580425009.761,163
1580425019.761,163
1580425029.761,163
1580425039.761,163
1580425049.761,163
1580425059.761,163
1580425069.761,163
1580425079.761,163
1580425089.761,163
1580425099.761,163
1580425109.761,163
1580425119.761,163
1580425129.761,163
1580425139.761,163
1580425149.761,163
1580425159.761,163
1580425169.761,163
1580425179.763,163
1580425189.761,163
1580425199.761,163
