epoch,value
1580471092.236,0
1580471102.236,0
1580471112.241,0
1580471122.236,0
1580471132.236,0
1580471142.236,0
1580471152.236,0
1580471162.236,0
1580471172.236,0
1580471182.236,0
1580471192.236,0
1580471202.236,0
1580471212.236,0
1580471222.236,1
1580471232.236,1
1580471242.236,1
1580471252.236,1
1580471262.236,1
1580471272.236,1
1580471282.236,1
1580471292.236,1
1580471302.236,1
1580471312.236,1
1580471322.236,1
1580471332.241,2
1580471342.236,2
1580471352.236,2
1580471362.236,2
1580471372.236,2
1580471382.236,2
1580471392.236,2
1580471402.236,3
1580471412.236,3
1580471422.236,3
1580471432.236,3
1580471442.236,3
1580471452.236,3
1580471462.236,3
1580471472.236,3
1580471482.236,3
1580471492.236,3
1580471502.236,3
1580471512.236,3
1580471522.236,3
1580471532.236,3
1580471542.236,4
1580471552.236,4
1580471562.241,4
1580471572.236,4
1580471582.236,4
1580471592.236,4
1580471602.241,4
1580471612.236,4
1580471622.236,4
1580471632.236,4
1580471642.236,4
1580471652.236,4
1580471662.236,5
1580471672.236,5
1580471682.236,5
1580471692.236,5
1580471702.236,5
1580471712.236,5
1580471722.236,5
1580471732.236,5
1580471742.236,5
1580471752.236,5
1580471762.236,5
1580471772.236,5
1580471782.236,5
1580471792.236,5
1580471802.236,5
1580471812.236,5
1580471822.236,5
1580471832.236,6
1580471842.236,6
1580471852.236,6
1580471862.236,6
1580471872.236,6
1580471882.236,6
1580471892.236,6
1580471902.236,6
1580471912.236,6
1580471922.236,6
1580471932.236,6
1580471942.236,6
1580471952.236,6
1580471962.236,7
1580471972.236,7
1580471982.236,7
1580471992.236,7
1580472002.236,7
1580472012.236,7
1580472022.236,7
1580472032.236,7
1580472042.236,7
1580472052.236,7
1580472062.236,7
1580472072.236,7
1580472082.236,7
1580472092.236,7
1580472102.236,7
1580472112.236,7
1580472122.236,7
1580472132.236,8
1580472142.236,8
1580472152.236,8
1580472162.236,8
1580472172.236,8
1580472182.236,8
1580472192.236,8
1580472202.236,8
1580472212.236,8
1580472222.236,8
1580472232.236,8
1580472242.236,8
1580472252.236,8
1580472262.239,9
1580472272.236,9
1580472282.236,9
1580472292.236,9
1580472302.236,9
1580472312.236,9
1580472322.236,9
1580472332.236,9
1580472342.236,9
1580472352.236,9
1580472362.236,9
1580472372.236,10
1580472382.236,10
1580472392.236,10
1580472402.236,10
1580472412.236,10
1580472422.236,10
1580472432.241,10
1580472442.236,10
1580472452.236,10
1580472462.236,10
1580472472.236,10
1580472482.236,10
1580472492.236,10
1580472502.236,11
1580472512.236,11
1580472522.236,11
1580472532.236,11
1580472542.236,11
1580472552.236,11
1580472562.236,11
1580472572.236,11
1580472582.236,11
1580472592.236,11
1580472602.240,11
1580472612.236,12
1580472622.236,12
