epoch,value
1580209399.915,0
1580209409.915,0
1580209419.915,0
1580209429.929,3
1580209439.915,13
1580209449.915,20
1580209459.915,21
1580209469.915,26
1580209479.915,30
1580209489.915,39
1580209499.915,50
1580209509.915,65
1580209519.915,72
1580209529.915,89
1580209539.915,92
1580209549.915,96
1580209559.915,106
1580209569.915,118
1580209579.921,126
1580209589.915,131
1580209599.915,141
1580209609.915,145
1580209619.915,164
1580209629.915,166
1580209639.915,172
1580209649.915,200
1580209659.915,205
1580209669.915,213
1580209679.915,214
1580209689.915,220
1580209699.915,231
1580209709.915,236
1580209719.916,249
1580209729.915,250
1580209739.915,250
1580209749.915,250
1580209759.915,250
1580209769.920,250
1580209779.921,250
1580209789.915,250
1580209799.921,250
1580209809.915,250
1580209819.915,250
1580209829.915,250
1580209839.915,250
1580209849.915,250
1580209859.915,250
1580209869.915,250
1580209879.915,250
1580209889.915,250
1580209899.915,250
1580209909.915,250
1580209919.915,250
1580209929.915,250
1580209939.915,250
1580209949.915,250
1580209959.915,250
1580209969.915,250
1580209979.915,250
1580209989.915,250
1580209999.915,250
1580210009.915,251
1580210019.915,251
1580210029.915,251
1580210039.915,251
1580210049.915,251
1580210059.915,251
1580210069.915,251
1580210079.915,251
1580210089.915,251
1580210099.915,251
1580210109.915,251
1580210119.915,251
1580210129.915,251
1580210139.915,251
1580210149.915,251
1580210159.915,252
1580210169.915,252
1580210179.915,252
1580210189.915,252
1580210199.915,253
1580210209.915,253
1580210219.915,253
1580210229.915,253
1580210239.915,253
1580210249.915,253
1580210259.915,253
1580210269.915,253
1580210279.915,253
1580210289.915,253
1580210299.915,253
1580210309.917,254
1580210319.915,254
1580210329.915,254
1580210339.915,254
1580210349.915,254
1580210359.915,254
1580210369.915,254
1580210379.915,254
1580210389.915,254
1580210399.915,254
1580210409.915,254
1580210419.915,254
1580210429.915,254
1580210439.915,254
1580210449.915,254
1580210459.915,255
1580210469.915,255
1580210479.915,255
1580210489.915,255
1580210499.915,255
1580210509.915,255
1580210519.915,255
1580210529.915,255
1580210539.915,255
1580210549.915,255
1580210559.918,255
1580210569.915,255
1580210579.915,255
1580210589.915,255
1580210599.915,255
1580210609.915,255
1580210619.915,255
1580210629.915,255
1580210639.915,255
1580210649.915,255
1580210659.915,255
1580210669.915,255
1580210679.915,255
1580210689.916,255
1580210699.915,255
1580210709.915,255
1580210719.915,255
1580210729.915,255
1580210739.915,255
1580210749.915,255
1580210759.915,255
1580210769.915,255
1580210779.915,255
1580210789.917,255
1580210799.915,256
1580210809.915,256
1580210819.915,256
1580210829.917,256
1580210839.915,256
1580210849.915,256
1580210859.915,256
1580210869.915,256
1580210879.915,256
1580210889.915,256
1580210899.915,256
1580210909.915,256
1580210919.915,256
1580210929.915,256
1580210939.915,256
1580210949.915,256
1580210959.915,256
1580210969.915,256
1580210979.915,256
1580210989.915,256
1580210999.915,256
1580211009.915,256
1580211019.915,256
1580211029.915,256
1580211039.915,256
1580211049.915,256
1580211059.915,256
1580211069.915,256
1580211079.915,256
1580211089.915,256
1580211099.915,256
1580211109.915,257
1580211119.915,257
1580211129.915,257
1580211139.915,257
1580211149.915,257
1580211159.915,257
1580211169.915,257
1580211179.915,257
1580211189.915,257
1580211199.915,257
1580211209.915,257
1580211219.915,257
1580211229.915,257
1580211239.915,257
1580211249.915,257
1580211259.915,257
1580211269.915,257
1580211279.915,257
1580211289.915,257
1580211299.915,257
1580211309.915,257
1580211319.921,257
1580211329.915,257
1580211339.915,257
1580211349.915,257
1580211359.915,257
1580211369.915,257
1580211379.915,257
1580211389.915,257
1580211399.915,257
1580211409.915,257
1580211419.915,257
1580211429.915,257
1580211439.915,257
1580211449.915,257
1580211459.915,257
1580211469.915,257
1580211479.915,258
1580211489.915,258
1580211499.915,258
1580211509.915,258
1580211519.915,258
1580211529.915,258
1580211539.915,258
1580211549.915,258
1580211559.915,258
1580211569.915,258
1580211579.915,258
1580211589.915,258
1580211599.915,258
1580211609.915,258
1580211619.915,258
1580211629.915,258
1580211639.915,258
1580211649.915,258
1580211659.915,258
1580211669.915,258
1580211679.915,258
1580211689.915,258
1580211699.915,258
1580211709.915,258
1580211719.915,258
1580211729.915,259
1580211739.915,259
1580211749.915,259
1580211759.915,259
1580211769.915,259
1580211779.915,259
1580211789.921,259
1580211799.917,259
1580211809.915,259
1580211819.915,259
1580211829.915,259
1580211839.915,259
1580211849.915,259
1580211859.915,259
1580211869.915,259
1580211879.915,259
1580211889.915,259
1580211899.915,259
1580211909.921,259
1580211919.915,259
1580211929.915,259
1580211939.915,259
1580211949.915,259
1580211959.915,259
1580211969.915,259
1580211979.915,259
1580211989.915,259
1580211999.921,259
1580212009.915,259
1580212019.915,259
1580212029.915,259
1580212039.915,259
1580212049.915,260
1580212059.915,260
1580212069.915,260
1580212079.915,260
1580212089.915,260
1580212099.915,260
1580212109.915,260
1580212119.915,260
1580212129.915,260
1580212139.915,260
1580212149.915,260
