epoch,value
1580515205.166,17
1580515215.166,17
1580515225.166,17
1580515235.166,17
1580515245.166,17
1580515255.166,17
1580515265.166,17
1580515275.166,17
1580515285.166,17
1580515295.166,17
1580515305.166,17
1580515315.166,17
1580515325.166,17
1580515335.166,17
1580515345.166,17
1580515355.166,17
1580515365.166,17
1580515375.166,17
1580515385.166,17
1580515395.166,17
1580515405.166,17
1580515415.166,17
1580515425.166,17
1580515435.166,17
1580515445.166,17
1580515455.166,17
1580515465.170,17
1580515475.166,17
1580515485.166,17
1580515495.166,17
1580515515.166,18
1580515525.166,18
1580515535.166,18
1580515545.166,18
1580515555.166,18
1580515565.166,18
1580515575.173,18
1580515585.166,18
1580515595.166,18
1580515605.166,18
1580515615.166,18
1580515625.166,18
1580515635.166,18
1580515645.166,18
1580515655.166,18
1580515665.166,18
1580515675.166,18
1580515685.166,18
1580515695.166,18
1580515705.166,18
1580515715.166,18
1580515725.166,18
1580515735.166,18
1580515745.166,18
1580515755.166,19
1580515765.166,19
1580515775.166,19
1580515785.166,19
1580515795.166,19
1580515805.166,19
1580515815.166,19
1580515825.166,19
1580515845.166,19
1580515855.166,19
1580515865.166,19
1580515875.166,19
1580515885.166,19
1580515895.166,19
1580515905.166,19
1580515915.166,19
1580515925.166,19
1580515935.166,19
1580515945.166,19
1580515955.166,19
1580515965.166,19
1580515975.166,19
1580515985.166,19
1580515995.166,19
1580516005.166,20
1580516015.166,20
1580516025.166,20
1580516035.166,20
1580516045.166,20
1580516055.166,20
1580516065.166,20
1580516075.166,20
1580516085.166,20
1580516095.166,20
1580516105.166,20
1580516115.166,20
1580516125.166,20
1580516135.166,20
1580516145.166,20
1580516155.166,20
1580516165.166,20
1580516175.166,20
1580516185.166,20
1580516195.166,20
1580516205.166,20
1580516215.166,20
1580516225.166,20
1580516235.166,20
1580516245.166,20
1580516255.166,20
1580516265.166,20
1580516275.166,20
1580516285.166,20
1580516295.166,20
1580516305.166,20
1580516315.166,20
1580516325.166,20
1580516335.166,20
1580516345.166,20
1580516355.173,20
1580516365.166,20
1580516375.169,20
1580516385.166,20
1580516395.166,20
1580516405.166,20
1580516415.166,21
1580516425.166,21
1580516435.166,21
1580516455.166,21
1580516465.166,21
1580516475.166,21
1580516485.166,21
1580516495.166,21
1580516505.166,21
1580516515.166,21
1580516525.166,21
1580516535.166,21
1580516545.166,21
1580516555.166,21
1580516565.166,21
1580516575.166,21
1580516585.166,21
1580516595.166,21
1580516605.166,21
1580516615.166,21
1580516625.166,21
1580516635.166,21
1580516645.166,21
1580516655.166,21
1580516665.166,21
1580516675.166,21
1580516685.166,21
1580516695.166,21
1580516705.166,21
1580516715.166,21
1580516725.166,21
1580516735.166,21
1580516745.166,21
1580516755.166,21
1580516765.166,21
1580516775.166,21
1580516785.166,21
1580516795.166,21
1580516805.166,21
1580516815.166,21
1580516825.166,22
1580516835.166,22
1580516845.166,22
1580516855.166,22
1580516865.166,22
1580516875.166,22
1580516885.166,22
1580516905.166,22
1580516915.166,22
1580516925.169,22
1580516945.166,22
1580516955.166,22
1580516965.166,22
1580516975.173,22
1580516985.166,22
1580516995.166,22
1580517005.166,22
1580517015.166,22
1580517025.166,22
1580517035.166,22
1580517045.166,22
1580517055.166,22
1580517065.166,22
1580517075.166,22
1580517085.166,22
1580517095.166,22
1580517105.166,22
1580517115.166,22
1580517135.166,22
1580517145.166,22
1580517155.166,22
1580517165.166,22
1580517175.166,22
1580517185.166,22
1580517195.166,22
1580517205.166,22
1580517215.166,22
1580517225.166,22
1580517235.166,23
1580517245.166,23
1580517255.166,23
1580517265.166,23
1580517275.166,23
1580517285.167,23
1580517295.166,23
1580517305.166,23
1580517315.166,23
1580517325.166,23
1580517335.166,23
1580517345.166,23
1580517355.166,23
1580517365.166,23
1580517375.166,23
1580517385.166,23
1580517395.166,23
1580517405.166,23
1580517415.166,23
1580517425.166,23
1580517435.166,23
1580517445.166,23
1580517455.166,23
1580517465.166,23
1580517475.166,23
1580517485.166,23
1580517495.166,23
1580517505.168,23
1580517515.166,23
1580517525.166,24
1580517545.166,24
1580517555.166,24
1580517565.166,24
1580517575.166,24
