epoch,value
1580509445.166,0
1580509455.166,0
1580509465.166,0
1580509475.166,0
1580509485.166,0
1580509495.166,0
1580509505.166,0
1580509515.166,0
1580509525.166,0
1580509535.166,0
1580509545.166,0
1580509555.166,0
1580509565.166,0
1580509575.166,0
1580509585.166,0
1580509595.166,0
1580509605.166,0
1580509615.166,0
1580509625.166,0
1580509635.166,0
1580509645.166,0
1580509655.166,0
1580509665.166,0
1580509675.166,0
1580509685.166,0
1580509695.166,0
1580509705.166,0
1580509715.168,0
1580509725.166,0
1580509735.166,0
1580509745.166,0
1580509755.166,0
1580509765.166,0
1580509775.166,0
1580509785.166,1
1580509795.166,1
1580509805.166,1
1580509815.166,1
1580509825.166,1
1580509835.166,1
1580509845.169,1
1580509855.166,1
1580509865.166,1
1580509875.166,1
1580509885.166,1
1580509895.166,1
1580509905.166,1
1580509915.166,1
1580509925.166,1
1580509935.166,1
1580509945.166,1
1580509955.166,1
1580509965.166,1
1580509975.167,1
1580509985.166,1
1580509995.166,1
1580510005.166,1
1580510015.166,1
1580510025.166,1
1580510035.166,1
1580510045.166,1
1580510055.166,1
1580510065.166,1
1580510075.166,1
1580510085.166,1
1580510095.166,1
1580510105.166,1
1580510115.166,1
1580510125.166,1
1580510135.166,1
1580510145.166,1
1580510155.166,1
1580510165.166,1
1580510175.166,1
1580510185.166,1
1580510195.166,1
1580510205.166,1
1580510215.166,1
1580510225.166,1
1580510235.166,1
1580510245.166,1
1580510255.166,2
1580510265.173,2
1580510275.166,2
1580510285.166,2
1580510295.166,2
1580510305.166,2
1580510315.166,2
1580510325.166,2
1580510335.166,2
1580510345.166,2
1580510355.166,2
1580510365.166,2
1580510375.166,2
1580510385.166,2
1580510395.166,2
1580510405.166,2
1580510415.166,2
1580510425.166,2
1580510435.166,2
1580510445.166,2
1580510455.166,2
1580510465.166,2
1580510475.166,2
1580510485.166,2
1580510495.166,2
1580510505.166,2
1580510515.166,2
1580510525.166,2
1580510535.166,2
1580510545.166,2
1580510555.166,2
1580510565.166,2
1580510575.166,2
1580510585.166,2
1580510595.166,2
1580510605.166,2
1580510615.166,2
1580510625.166,2
1580510635.166,2
1580510645.166,2
1580510655.166,3
1580510665.166,3
1580510675.166,3
1580510685.167,3
1580510695.166,3
1580510705.166,3
1580510715.166,3
1580510725.166,3
1580510735.166,3
1580510745.166,3
1580510755.166,3
1580510765.166,3
1580510775.169,3
1580510785.166,3
1580510795.166,3
1580510805.166,3
1580510815.166,3
1580510825.166,3
1580510835.166,3
1580510845.166,3
1580510855.166,3
1580510865.166,3
1580510875.166,3
1580510885.166,3
1580510895.166,3
1580510905.166,3
1580510915.166,3
1580510925.166,3
1580510935.166,3
1580510945.166,3
1580510955.166,3
1580510965.166,3
1580510975.166,3
1580510985.166,3
1580510995.166,3
1580511005.166,3
1580511015.166,4
1580511025.166,4
1580511035.166,4
1580511045.166,4
1580511055.166,4
1580511065.166,4
1580511075.166,4
1580511085.166,4
1580511095.166,4
1580511105.166,4
1580511115.166,4
1580511125.166,4
1580511145.166,4
1580511155.166,4
1580511165.166,4
1580511175.166,4
1580511185.166,4
1580511195.166,4
1580511205.166,4
1580511215.166,4
1580511225.166,4
1580511235.166,4
1580511245.166,4
1580511255.166,4
1580511265.166,4
1580511275.166,4
1580511285.166,4
1580511295.166,4
1580511305.166,4
1580511315.166,4
1580511325.166,4
1580511335.166,4
1580511345.166,4
1580511355.166,4
1580511365.166,4
1580511375.166,4
1580511385.166,4
1580511395.166,4
1580511405.166,4
1580511415.169,4
1580511425.166,4
1580511435.166,4
1580511445.166,4
1580511455.166,5
1580511465.166,5
1580511475.166,5
1580511485.166,5
1580511495.166,5
1580511505.166,5
1580511515.166,5
1580511525.166,5
1580511535.166,5
1580511545.166,5
1580511555.166,5
1580511565.166,5
1580511575.166,5
1580511585.166,5
1580511595.166,5
1580511605.166,5
1580511615.166,5
1580511625.166,5
1580511635.166,5
1580511645.166,5
1580511655.166,5
1580511665.166,6
1580511675.166,6
1580511685.166,6
1580511695.166,6
1580511705.166,6
1580511715.166,6
1580511725.166,6
1580511745.166,6
1580511755.166,6
1580511765.166,6
1580511775.166,6
1580511785.166,6
1580511795.166,6
1580511805.166,6
1580511825.166,6
1580511835.166,6
1580511845.166,6
1580511855.166,6
1580511865.166,6
1580511875.166,6
1580511885.166,6
1580511895.166,6
1580511905.166,6
1580511915.166,6
1580511925.166,7
1580511935.166,7
1580511945.166,7
1580511955.166,7
1580511965.166,7
1580511975.166,7
1580511985.166,7
1580511995.166,7
1580512005.166,7
1580512015.166,7
1580512025.166,7
1580512035.166,7
1580512045.166,7
1580512055.168,7
1580512065.166,7
1580512075.166,7
1580512085.166,7
1580512095.166,7
1580512105.166,7
1580512115.166,7
1580512125.166,7
1580512135.166,7
1580512145.166,7
1580512155.166,7
1580512165.166,7
1580512175.166,7
1580512185.166,7
1580512195.169,7
1580512205.166,7
1580512215.166,7
1580512225.169,7
1580512235.166,7
1580512245.166,7
1580512255.166,7
1580512265.166,7
1580512275.166,7
1580512285.166,7
1580512295.166,7
1580512305.166,7
1580512315.166,7
1580512325.166,7
1580512335.166,7
1580512345.166,7
1580512355.166,7
1580512365.166,7
1580512375.166,8
1580512385.166,8
1580512395.166,8
1580512405.166,8
1580512415.166,8
1580512425.166,8
1580512435.166,8
1580512445.166,8
1580512455.166,8
1580512465.166,8
1580512475.166,8
1580512485.166,8
1580512495.166,8
1580512505.166,8
1580512515.166,8
1580512525.166,8
1580512535.166,8
1580512545.166,8
1580512555.166,8
1580512565.166,8
1580512575.166,8
1580512585.166,8
1580512595.166,8
1580512605.166,8
1580512615.166,8
1580512625.166,8
1580512635.166,8
1580512645.166,8
1580512655.166,8
1580512665.166,8
1580512675.166,8
1580512685.166,8
1580512695.166,8
1580512705.166,8
1580512715.166,8
1580512725.166,8
1580512735.166,8
1580512745.166,8
1580512755.166,8
1580512765.166,8
1580512775.166,8
1580512785.166,8
1580512795.166,8
1580512805.166,8
1580512815.166,8
1580512825.166,8
1580512835.166,8
1580512845.166,8
1580512855.166,8
1580512865.166,8
1580512875.166,8
1580512885.166,8
1580512895.166,8
1580512905.166,8
1580512915.169,8
1580512925.166,8
1580512935.166,8
1580512945.166,8
1580512955.166,8
1580512965.166,8
1580512975.166,9
1580512985.166,9
1580512995.166,9
1580513005.166,9
1580513015.166,9
1580513025.166,9
1580513035.166,9
1580513045.166,9
1580513055.166,9
1580513065.166,9
1580513075.166,9
1580513085.166,9
1580513095.166,9
1580513105.166,9
1580513125.166,9
1580513135.166,9
1580513145.166,9
1580513155.166,9
1580513165.166,9
1580513175.166,9
1580513185.166,9
1580513195.166,9
1580513205.166,9
1580513215.166,9
1580513225.166,9
1580513235.166,9
1580513245.166,9
1580513255.166,9
1580513265.166,9
1580513275.166,9
1580513285.166,9
1580513295.166,10
1580513305.166,10
1580513315.166,10
1580513325.166,10
1580513335.166,10
1580513345.166,10
1580513355.166,10
1580513365.166,10
1580513375.166,10
1580513385.166,10
1580513395.166,10
1580513405.166,10
1580513415.166,10
1580513425.166,10
1580513435.166,10
1580513445.166,10
1580513455.169,10
1580513465.166,10
1580513475.166,10
1580513485.166,10
1580513495.166,10
1580513505.166,10
1580513515.166,10
1580513525.166,10
1580513535.166,10
1580513545.166,10
1580513555.166,11
1580513565.166,11
1580513575.166,11
1580513585.166,11
1580513595.166,11
1580513605.166,11
1580513615.166,11
1580513625.166,11
1580513635.166,11
1580513645.166,11
1580513655.166,11
1580513665.166,11
1580513675.166,11
1580513685.166,11
1580513695.166,11
1580513705.166,11
1580513715.166,11
1580513725.166,11
1580513735.166,11
1580513745.166,11
1580513755.173,11
1580513765.166,12
1580513775.166,12
1580513785.166,12
1580513795.166,12
1580513805.167,12
1580513815.166,12
1580513825.166,12
1580513835.166,12
1580513845.166,12
1580513855.166,12
1580513865.166,12
1580513875.166,12
1580513885.166,12
1580513895.166,12
1580513905.166,12
1580513915.166,12
1580513925.166,12
1580513935.166,13
1580513945.166,13
1580513955.169,13
1580513965.166,13
1580513975.166,13
1580513985.166,13
1580513995.166,13
1580514005.166,13
1580514015.166,13
1580514025.166,13
1580514035.166,13
1580514045.166,13
1580514055.166,13
1580514065.166,13
1580514075.166,13
1580514085.166,13
1580514095.166,13
1580514105.166,13
1580514115.166,13
1580514125.166,13
1580514135.166,13
1580514145.166,13
1580514155.166,13
1580514165.166,13
1580514175.166,13
1580514185.166,13
1580514195.166,13
1580514205.166,13
1580514215.166,13
1580514225.166,13
1580514235.166,13
1580514245.166,13
1580514255.166,13
1580514265.166,13
1580514275.166,13
1580514285.166,13
1580514295.166,13
1580514305.166,13
1580514315.166,13
1580514325.166,13
1580514335.166,14
1580514345.170,14
1580514355.166,14
1580514365.166,14
1580514375.166,14
1580514385.166,14
1580514395.168,14
1580514405.166,14
1580514415.166,14
1580514425.166,14
1580514435.166,14
1580514445.166,14
1580514455.166,14
1580514465.166,14
1580514475.166,14
1580514485.166,14
1580514495.166,14
1580514505.166,14
1580514515.166,14
1580514525.166,14
1580514535.166,14
1580514545.166,14
1580514555.166,14
1580514565.166,14
1580514575.166,14
1580514585.166,15
1580514595.166,15
1580514605.166,15
1580514615.166,15
1580514625.166,15
1580514635.166,15
1580514645.166,15
1580514655.166,15
1580514665.166,15
1580514675.166,15
1580514685.166,15
1580514695.166,15
1580514705.166,15
1580514715.166,15
1580514725.166,15
1580514735.166,15
1580514745.166,15
1580514755.166,15
1580514765.166,15
1580514775.166,15
1580514785.166,15
1580514795.166,15
1580514805.166,15
1580514815.166,15
1580514825.166,15
1580514835.166,15
1580514845.166,15
1580514855.166,15
1580514865.166,15
1580514875.170,15
1580514885.166,15
1580514895.166,15
1580514905.166,15
1580514915.166,15
1580514925.173,16
1580514935.166,16
1580514945.166,16
1580514955.166,16
1580514965.166,16
1580514975.166,16
1580514985.166,16
1580514995.166,16
1580515005.166,16
1580515015.166,16
1580515025.166,16
1580515035.166,16
1580515045.166,16
1580515055.166,16
1580515065.166,16
1580515075.166,16
1580515085.166,16
1580515095.166,16
1580515105.166,16
1580515115.166,16
1580515125.166,16
1580515135.166,16
1580515145.166,16
1580515155.166,16
1580515165.166,17
1580515175.166,17
1580515185.166,17
1580515195.166,17
