epoch,value
1579943724.090,0
1579943734.090,47
1579943744.090,48
1579943754.090,48
1579943764.090,51
1579943774.090,52
1579943794.090,55
1579943804.090,56
1579943814.090,56
1579943824.090,58
1579943834.090,94
1579943844.090,118
1579943854.090,132
1579943864.090,132
1579943874.093,132
1579943884.090,132
1579943894.090,132
1579943904.090,132
1579943914.090,132
1579943924.090,132
1579943934.090,132
1579943944.090,132
1579943954.092,132
1579943964.093,132
1579943974.090,132
1579943984.090,132
1579943994.090,132
1579944004.090,132
1579944014.090,132
1579944024.090,132
1579944034.090,132
1579944044.090,133
1579944054.090,133
1579944064.090,133
1579944074.090,133
1579944084.090,133
1579944094.090,133
1579944104.090,133
1579944114.090,133
1579944124.090,133
1579944134.090,133
1579944144.090,133
1579944154.090,133
1579944164.090,133
1579944174.090,133
1579944184.090,133
1579944194.090,133
1579944204.090,133
1579944214.090,133
1579944224.090,133
1579944234.090,133
1579944244.090,133
1579944254.090,133
1579944264.090,133
1579944274.090,133
1579944284.090,133
1579944294.090,133
1579944304.090,133
1579944314.090,133
1579944324.090,133
1579944334.090,133
1579944344.090,133
1579944354.090,133
1579944364.090,134
1579944374.090,134
1579944384.090,134
1579944394.090,134
1579944404.090,134
1579944414.090,134
1579944424.090,134
1579944434.090,134
1579944444.090,134
1579944454.090,134
1579944464.090,134
1579944474.090,134
1579944484.090,134
1579944494.090,134
1579944504.090,135
1579944514.090,135
1579944524.090,135
1579944534.090,135
1579944544.090,135
1579944554.090,135
1579944564.090,135
1579944574.090,135
1579944584.090,135
1579944594.090,135
1579944604.090,135
1579944614.090,135
1579944624.090,135
1579944634.090,135
1579944644.090,135
1579944654.090,135
1579944664.090,135
1579944674.090,135
1579944684.090,135
1579944694.090,135
1579944704.090,135
1579944714.090,135
1579944724.090,135
1579944734.090,135
1579944744.090,135
1579944754.090,135
1579944764.090,135
1579944774.094,135
1579944784.090,135
1579944794.090,135
1579944804.090,135
1579944814.090,135
1579944824.090,136
1579944834.090,136
1579944844.090,136
1579944854.090,136
1579944864.090,136
1579944874.094,136
1579944884.090,136
1579944894.090,136
1579944904.094,136
1579944914.090,136
1579944924.090,136
1579944934.093,136
1579944944.090,136
1579944954.090,136
1579944964.090,136
1579944974.090,136
1579944984.090,136
1579944994.090,136
1579945004.090,136
1579945014.090,136
1579945024.090,136
1579945034.090,136
1579945044.090,136
1579945054.090,136
1579945064.090,136
1579945074.090,136
1579945084.090,136
1579945094.090,136
1579945104.090,136
1579945114.090,136
1579945124.090,136
1579945134.090,136
1579945144.090,136
1579945154.090,136
1579945164.090,136
1579945174.090,136
1579945184.090,136
1579945194.090,137
1579945204.090,137
1579945214.094,137
1579945224.090,137
1579945234.090,137
1579945244.090,137
1579945254.090,137
1579945264.090,137
1579945274.090,137
1579945284.090,137
1579945294.090,137
1579945304.090,137
1579945314.090,137
1579945324.090,137
1579945334.090,137
1579945344.090,137
1579945354.090,137
1579945364.090,137
1579945374.090,137
1579945384.094,137
1579945394.090,137
1579945404.090,137
1579945414.090,137
1579945424.090,137
1579945434.090,137
1579945444.090,137
1579945454.090,138
1579945464.090,138
1579945474.090,138
1579945484.090,138
1579945494.090,138
1579945504.090,138
1579945514.090,138
1579945524.090,138
1579945534.090,138
1579945554.090,138
1579945564.090,138
1579945574.090,138
1579945584.090,138
1579945594.090,138
1579945604.090,138
1579945614.090,138
1579945624.090,138
1579945634.090,138
1579945644.090,138
1579945654.090,138
1579945664.090,138
1579945674.090,138
1579945684.090,138
1579945694.090,138
1579945704.094,138
1579945714.090,138
1579945724.090,138
1579945734.090,138
1579945744.090,139
1579945754.090,139
1579945764.090,139
1579945774.090,139
1579945784.090,139
1579945794.090,139
1579945804.090,139
1579945814.090,139
1579945824.090,139
1579945834.090,139
1579945844.090,139
1579945854.090,139
1579945864.090,139
1579945874.090,139
1579945884.090,139
1579945894.090,139
1579945904.090,139
1579945914.090,139
1579945924.090,139
1579945934.090,139
1579945944.090,139
1579945954.090,139
1579945964.090,140
1579945974.090,140
1579945984.090,140
1579945994.090,140
1579946004.090,140
1579946014.090,140
1579946024.090,140
1579946034.090,140
1579946044.090,140
1579946054.090,140
1579946064.094,140
1579946074.090,140
1579946084.090,140
1579946094.090,140
1579946104.090,140
1579946114.090,140
1579946124.090,140
1579946134.090,140
1579946144.090,140
1579946154.090,140
1579946164.090,140
1579946174.090,140
1579946184.090,140
1579946194.090,140
1579946204.090,140
1579946214.094,140
1579946224.090,140
1579946234.090,140
1579946244.090,140
1579946254.090,140
1579946264.090,140
1579946274.090,141
1579946284.090,141
1579946294.090,141
1579946304.090,141
1579946314.090,141
1579946324.101,141
