epoch,value
1580611647.517,419601
1580611657.495,419602
1580611667.494,419602
1580611677.495,419602
1580611687.495,419602
1580611697.495,419602
1580611707.495,419640
1580611717.495,419678
1580611727.495,419716
1580611737.494,419761
1580611747.494,419803
1580611757.495,419849
1580611767.495,419899
1580611777.495,419940
1580611787.495,419974
1580611797.497,420009
1580611807.494,420049
1580611817.494,420082
1580611827.494,420118
1580611837.494,420158
1580611847.495,420196
1580611857.494,420241
1580611867.495,420289
1580611877.495,420332
1580611887.494,420387
1580611897.494,420435
1580611907.495,420486
1580611917.495,420543
1580611927.495,420593
1580611937.495,420641
1580611947.495,420690
1580611957.496,420744
1580611967.496,420792
1580611977.496,420839
1580611987.495,420880
1580611997.495,420932
1580612007.495,420988
1580612017.494,421033
1580612027.495,421075
1580612037.494,421124
1580612047.496,421165
1580612057.494,421206
1580612067.495,421264
1580612077.494,421276
1580612087.495,421276
1580612097.495,421277
1580612107.495,421277
1580612117.494,421277
1580612127.494,421277
1580612137.495,421278
1580612147.495,421279
1580612157.496,421279
1580612167.494,421280
1580612177.494,421280
1580612187.494,421281
1580612197.495,421281
1580612207.496,421281
1580612217.494,421281
1580612227.494,421281
1580612237.495,421281
1580612247.495,421282
1580612257.494,421282
1580612267.495,421282
1580612277.495,421282
1580612287.495,421282
1580612297.496,421283
1580612307.494,421284
1580612317.494,421284
1580612327.495,421284
1580612337.495,421284
1580612347.496,421285
1580612357.496,421285
1580612367.494,421286
1580612377.496,421286
1580612387.494,421288
1580612397.495,421288
1580612407.495,421288
1580612417.495,421288
1580612427.495,421289
1580612437.495,421289
1580612447.494,421290
1580612457.497,421291
1580612467.494,421291
1580612477.495,421292
1580612487.495,421293
1580612497.494,421293
1580612507.494,421293
1580612517.495,421294
1580612527.494,421294
1580612537.494,421295
1580612547.494,421295
1580612557.495,421295
1580612567.495,421296
1580612577.495,421297
1580612587.495,421297
1580612597.495,421297
1580612607.494,421297
1580612617.494,421298
1580612627.494,421298
1580612637.497,421298
1580612647.494,421298
1580612657.494,421299
1580612667.499,421299
1580612677.495,421299
1580612687.495,421302
1580612697.494,421303
1580612707.495,421304
1580612717.495,421306
1580612727.495,421309
1580612737.494,421310
1580612747.494,421310
1580612757.495,421311
1580612767.494,421312
1580612777.494,421312
1580612787.495,421313
1580612797.495,421314
1580612807.495,421314
1580612817.494,421314
1580612827.494,421314
1580612837.494,421315
1580612847.495,421315
1580612857.495,421315
1580612867.494,421316
1580612877.494,421316
1580612887.494,421316
1580612897.495,421316
1580612907.494,421316
1580612917.494,421317
1580612927.495,421318
1580612937.495,421318
1580612947.494,421320
1580612957.495,421321
1580612967.494,421321
1580612977.494,421322
1580612987.495,421322
1580612997.495,421323
1580613007.494,421323
1580613017.494,421323
1580613027.494,421324
1580613037.495,421325
1580613047.494,421326
1580613057.494,421326
1580613067.494,421326
1580613077.494,421326
1580613087.494,421327
1580613097.494,421327
1580613107.495,421327
1580613117.494,421327
1580613127.495,421329
1580613137.494,421330
1580613147.495,421331
1580613157.494,421331
1580613167.494,421332
1580613177.495,421332
1580613187.494,421332
1580613197.494,421332
1580613207.495,421332
1580613217.496,421333
1580613227.495,421334
1580613237.495,421334
1580613247.494,421336
1580613257.494,421336
1580613267.495,421336
1580613277.494,421337
1580613287.494,421337
1580613297.495,421338
1580613307.494,421339
1580613317.496,421340
1580613327.496,421340
1580613337.495,421341
1580613347.494,421342
1580613357.497,421343
1580613367.494,421343
1580613377.495,421344
1580613387.495,421344
1580613397.495,421344
1580613407.495,421346
1580613417.495,421347
1580613427.497,421347
1580613437.494,421348
1580613447.495,421349
1580613457.494,421349
1580613467.495,421350
1580613477.495,421351
1580613487.494,421351
1580613497.494,421352
1580613507.495,421352
1580613517.494,421353
1580613527.495,421354
1580613537.494,421354
1580613547.496,421355
1580613557.495,421355
1580613567.495,421356
1580613577.495,421356
1580613587.496,421356
1580613597.496,421357
1580613607.495,421357
1580613617.494,421358
1580613627.494,421359
1580613637.496,421359
1580613647.494,421359
1580613657.494,421360
1580613667.496,421362
1580613677.500,421362
1580613687.495,421362
1580613697.495,421362
1580613707.497,421362
1580613717.495,421364
1580613727.494,421364
1580613737.494,421366
1580613747.494,421366
1580613757.494,421366
1580613767.494,421367
1580613777.494,421367
1580613787.495,421367
1580613797.494,421369
1580613807.495,421370
1580613817.494,421373
1580613827.495,421373
1580613837.495,421373
1580613847.495,421373
1580613857.496,421374
1580613867.494,421375
1580613877.494,421376
1580613887.494,421376
1580613897.497,421377
1580613907.494,421377
1580613917.494,421378
1580613927.495,421378
1580613937.496,421378
1580613947.494,421380
1580613957.495,421380
1580613967.494,421382
1580613977.494,421382
1580613987.497,421384
1580613997.495,421386
1580614007.494,421386
1580614017.495,421389
1580614027.494,421389
1580614037.495,421390
1580614047.495,421390
1580614057.495,421391
1580614067.495,421392
1580614077.494,421392
1580614087.494,421392
1580614097.495,421394
1580614107.496,421394
1580614117.494,421394
1580614127.494,421396
1580614137.495,421396
1580614147.495,421399
1580614157.495,421400
1580614167.494,421400
1580614177.494,421401
1580614187.496,421402
1580614197.495,421402
1580614207.494,421404
1580614217.495,421404
1580614227.495,421404
1580614237.495,421407
1580614247.496,421408
1580614257.495,421408
1580614267.494,421408
1580614277.494,421408
1580614287.497,421409
1580614297.494,421410
1580614307.495,421411
1580614317.495,421411
1580614327.495,421412
1580614337.495,421412
1580614347.495,421412
1580614357.494,421413
1580614367.495,421414
1580614377.495,421414
1580614387.495,421416
1580614397.495,421416
1580614407.494,421416
1580614417.494,421416
1580614427.494,421418
1580614437.498,421418
1580614447.494,421419
1580614457.494,421420
1580614467.496,421420
1580614477.495,421422
1580614487.496,421423
1580614497.494,421424
1580614507.496,421425
1580614517.494,421426
1580614527.496,421427
1580614537.494,421429
1580614547.495,421429
1580614557.495,421429
1580614567.495,421430
1580614577.494,421432
1580614587.495,421432
1580614597.495,421433
1580614607.495,421433
1580614617.495,421433
1580614627.495,421433
1580614637.495,421434
1580614647.498,421434
1580614657.495,421434
1580614667.495,421434
1580614677.494,421435
1580614687.495,421436
1580614697.495,421438
1580614707.495,421438
1580614717.494,421439
1580614727.495,421439
1580614737.496,421439
1580614747.497,421439
1580614757.495,421440
1580614767.494,421440
1580614777.494,421440
1580614787.494,421440
1580614797.495,421441
1580614807.494,421442
1580614817.494,421442
1580614827.496,421443
1580614837.494,421444
1580614847.494,421445
1580614857.496,421446
1580614867.494,421446
1580614877.495,421446
1580614887.495,421446
1580614897.494,421446
1580614907.494,421447
1580614917.494,421447
1580614927.495,421447
1580614937.494,421447
1580614947.495,421447
1580614957.494,421448
1580614967.496,421448
1580614977.494,421449
1580614987.494,421450
1580614997.494,421451
1580615007.495,421452
1580615017.494,421454
1580615027.495,421454
1580615037.495,421455
1580615047.495,421458
1580615057.495,421459
1580615067.494,421459
1580615077.495,421459
1580615087.495,421460
1580615097.495,421460
1580615107.495,421460
1580615117.494,421462
1580615127.494,421464
1580615137.495,421465
1580615147.495,421465
1580615157.494,421465
1580615167.495,421465
1580615177.494,421467
1580615187.495,421468
1580615197.494,421468
1580615207.494,421468
1580615217.495,421472
1580615227.494,421472
1580615237.495,421474
1580615247.495,421474
1580615257.494,421474
1580615267.494,421476
1580615277.494,421476
1580615287.495,421476
1580615297.496,421476
1580615307.495,421476
1580615317.496,421478
1580615327.495,421478
1580615337.494,421478
1580615347.494,421480
1580615357.496,421480
1580615367.494,421481
1580615377.494,421481
1580615387.496,421481
1580615397.496,421482
1580615407.496,421482
1580615417.494,421483
1580615427.495,421485
1580615437.495,421485
1580615447.494,421485
1580615457.496,421485
1580615467.496,421485
1580615477.496,421487
1580615487.495,421489
1580615497.494,421490
1580615507.495,421491
1580615517.495,421491
1580615527.495,421491
1580615537.494,421493
1580615547.495,421493
1580615557.495,421494
1580615567.494,421494
1580615577.495,421494
1580615587.495,421494
1580615597.495,421495
1580615607.495,421496
1580615617.494,421496
1580615627.494,421497
1580615637.495,421498
1580615647.495,421499
1580615657.494,421500
1580615667.494,421500
1580615677.494,421500
1580615687.495,421500
1580615697.495,421500
1580615707.494,421502
1580615717.495,421502
1580615727.497,421504
1580615737.495,421506
1580615747.495,421507
1580615757.495,421508
1580615767.496,421508
1580615777.495,421510
1580615787.498,421511
1580615797.495,421512
1580615807.495,421514
1580615817.494,421515
1580615827.494,421515
1580615837.495,421515
1580615847.494,421516
1580615857.494,421516
1580615867.496,421516
1580615877.494,421518
1580615887.495,421518
1580615897.495,421518
1580615907.494,421518
1580615917.495,421519
1580615927.494,421519
1580615937.494,421520
1580615947.494,421520
1580615957.495,421521
1580615967.494,421521
1580615977.495,421522
1580615987.497,421522
1580615997.494,421522
1580616007.495,421523
1580616017.495,421523
1580616027.495,421524
1580616037.495,421526
1580616047.495,421526
1580616057.494,421526
1580616067.495,421528
1580616077.496,421529
1580616087.494,421530
1580616097.494,421530
1580616107.494,421530
1580616117.495,421532
1580616127.495,421532
1580616137.495,421533
1580616147.495,421534
1580616157.495,421536
1580616167.494,421536
1580616177.495,421536
1580616187.495,421536
1580616197.494,421536
1580616207.495,421536
1580616217.496,421538
1580616227.494,421540
1580616237.496,421540
1580616247.497,421541
1580616257.495,421542
1580616267.494,421542
1580616277.494,421543
1580616287.494,421543
1580616297.494,421545
1580616307.495,421546
1580616317.494,421548
1580616327.495,421549
1580616337.495,421549
1580616347.494,421550
1580616357.495,421551
1580616367.495,421552
1580616377.495,421552
1580616387.494,421553
1580616397.494,421554
1580616407.494,421556
1580616417.494,421556
1580616427.494,421558
1580616437.497,421560
1580616447.495,421560
1580616457.494,421561
1580616467.494,421563
1580616477.494,421564
1580616487.494,421565
1580616497.494,421566
1580616507.495,421567
1580616517.494,421569
1580616527.494,421570
1580616537.495,421571
1580616547.494,421571
1580616557.495,421572
1580616567.496,421573
1580616577.494,421574
1580616587.494,421575
1580616597.494,421576
1580616607.494,421578
1580616617.494,421578
1580616627.496,421578
1580616637.494,421578
1580616647.494,421580
1580616657.494,421580
1580616667.496,421580
1580616677.496,421580
1580616687.494,421580
1580616697.494,421581
1580616707.495,421581
1580616717.495,421581
1580616727.494,421582
1580616737.495,421584
1580616747.494,421587
1580616757.495,421588
1580616767.494,421588
1580616777.494,421588
1580616787.497,421589
1580616797.494,421590
1580616807.494,421591
1580616817.495,421594
1580616827.494,421594
1580616837.495,421595
1580616847.494,421595
1580616857.495,421595
1580616867.496,421595
1580616877.494,421596
1580616887.494,421596
1580616897.494,421596
1580616907.496,421597
1580616917.494,421598
1580616927.494,421599
1580616937.494,421600
1580616947.495,421600
1580616957.494,421601
1580616967.494,421602
1580616977.495,421602
1580616987.495,421602
1580616997.495,421604
1580617007.494,421604
1580617017.498,421605
1580617027.494,421606
1580617037.496,421608
1580617047.497,421608
1580617057.494,421609
1580617067.494,421609
1580617077.494,421610
1580617087.494,421610
1580617097.494,421611
1580617107.494,421612
1580617117.494,421612
1580617127.495,421612
1580617137.494,421614
1580617147.494,421615
1580617157.494,421616
1580617167.495,421619
1580617177.495,421620
1580617187.495,421621
1580617197.494,421622
1580617207.498,421622
1580617217.494,421623
1580617227.494,421623
1580617237.495,421624
1580617247.495,421624
1580617257.495,421625
1580617267.494,421626
1580617277.495,421626
1580617287.494,421627
1580617297.495,421627
1580617307.494,421630
1580617317.494,421630
1580617327.494,421632
1580617337.495,421632
1580617347.495,421633
1580617357.494,421634
1580617367.494,421634
1580617377.494,421637
1580617387.495,421637
1580617397.495,421637
1580617407.494,421637
1580617417.494,421638
1580617427.494,421638
1580617437.497,421638
1580617447.495,421638
1580617457.494,421639
1580617467.495,421639
1580617477.494,421639
1580617487.494,421642
1580617497.494,421642
1580617507.496,421642
1580617517.494,421643
1580617527.495,421644
1580617537.496,421644
1580617547.495,421644
1580617557.495,421645
1580617567.494,421645
1580617577.494,421645
1580617587.494,421645
1580617597.494,421647
1580617607.496,421648
1580617617.495,421650
1580617627.494,421650
1580617637.494,421651
1580617647.494,421651
1580617657.494,421651
1580617667.494,421653
1580617677.495,421654
1580617687.495,421655
1580617697.494,421655
1580617707.494,421656
1580617717.495,421656
1580617727.495,421656
1580617737.495,421656
1580617747.494,421657
1580617757.494,421657
1580617767.495,421657
1580617777.495,421658
1580617787.495,421659
1580617797.495,421661
1580617807.494,421661
1580617817.494,421661
1580617827.495,421662
1580617837.495,421662
1580617847.495,421662
1580617857.495,421662
1580617867.494,421663
1580617877.495,421664
1580617887.494,421665
1580617897.495,421668
1580617907.498,421669
1580617917.494,421669
1580617927.494,421670
1580617937.495,421671
1580617947.494,421671
1580617957.494,421672
1580617967.495,421672
1580617977.494,421672
1580617987.494,421672
1580617997.495,421674
1580618007.494,421674
1580618017.495,421675
1580618027.495,421676
1580618037.497,421678
1580618047.495,421678
1580618057.495,421679
1580618067.495,421680
1580618077.494,421680
1580618087.495,421680
1580618097.496,421681
1580618107.495,421682
1580618117.494,421683
1580618127.495,421685
1580618137.495,421686
1580618147.495,421688
1580618157.495,421688
1580618167.495,421688
1580618177.496,421689
1580618187.494,421689
1580618197.494,421690
1580618207.495,421691
1580618217.495,421692
1580618227.495,421693
1580618237.495,421693
1580618247.494,421693
1580618257.497,421694
1580618267.494,421694
1580618277.495,421695
1580618287.494,421696
1580618297.495,421696
1580618307.495,421697
1580618317.496,421698
1580618327.495,421698
1580618337.495,421698
1580618347.495,421698
1580618357.495,421699
1580618367.495,421699
1580618377.495,421701
1580618387.495,421702
1580618397.495,421703
1580618407.494,421703
1580618417.496,421704
1580618427.495,421705
1580618437.496,421705
1580618447.495,421705
1580618457.495,421705
1580618467.495,421706
1580618477.494,421707
1580618487.494,421707
1580618497.494,421709
1580618507.494,421710
1580618517.494,421711
1580618527.494,421711
1580618537.494,421712
1580618547.495,421714
1580618557.494,421715
1580618567.496,421715
1580618577.495,421716
1580618587.496,421717
1580618597.495,421717
1580618607.494,421717
1580618617.495,421718
1580618627.495,421719
1580618637.495,421720
1580618647.494,421720
1580618657.495,421722
1580618667.494,421722
1580618677.495,421723
1580618687.495,421723
1580618697.497,421723
1580618707.496,421724
1580618717.495,421724
1580618727.495,421724
1580618737.494,421725
1580618747.494,421725
1580618757.494,421725
1580618767.495,421726
1580618777.496,421726
1580618787.494,421727
1580618797.495,421727
1580618807.495,421728
1580618817.495,421728
1580618827.494,421728
1580618837.496,421728
1580618847.495,421729
1580618857.495,421730
1580618867.494,421730
1580618877.496,421731
1580618887.494,421733
1580618897.495,421733
1580618907.495,421734
1580618917.494,421735
1580618927.495,421735
1580618937.494,421735
1580618947.495,421735
1580618957.494,421736
1580618967.495,421737
1580618977.495,421737
1580618987.495,421737
1580618997.496,421737
1580619007.495,421738
1580619017.497,421738
1580619027.494,421738
1580619037.494,421740
1580619047.495,421741
1580619057.495,421742
1580619067.495,421742
1580619077.495,421742
1580619087.494,421742
1580619097.495,421742
1580619107.495,421742
1580619117.494,421742
1580619127.494,421744
1580619137.494,421744
1580619147.494,421746
1580619157.494,421746
1580619167.496,421747
1580619177.494,421747
1580619187.495,421747
1580619197.494,421748
1580619207.494,421750
1580619217.495,421750
1580619227.495,421751
1580619237.494,421751
1580619247.494,421752
1580619257.495,421752
1580619267.494,421753
1580619277.495,421754
1580619287.494,421756
1580619297.494,421756
1580619307.495,421757
1580619317.495,421758
1580619327.495,421758
1580619337.495,421759
1580619347.495,421759
1580619357.494,421759
1580619367.494,421760
1580619377.494,421760
1580619387.494,421760
1580619397.495,421760
1580619407.495,421760
1580619417.495,421760
1580619427.495,421761
1580619437.495,421761
1580619447.495,421762
1580619457.495,421762
1580619467.495,421762
1580619477.495,421763
1580619487.494,421764
1580619497.497,421765
1580619507.495,421766
1580619517.495,421767
1580619527.494,421767
1580619537.494,421768
1580619547.494,421769
1580619557.495,421769
1580619567.495,421769
1580619577.494,421769
1580619587.495,421769
1580619597.494,421770
1580619607.495,421770
1580619617.494,421770
1580619627.495,421770
1580619637.494,421771
1580619647.495,421772
1580619657.495,421772
1580619667.495,421774
1580619677.495,421774
1580619687.495,421774
1580619697.495,421774
1580619707.495,421776
1580619717.494,421776
1580619727.495,421776
1580619737.495,421776
1580619747.495,421777
1580619757.494,421777
1580619767.495,421778
1580619777.495,421778
1580619787.494,421779
1580619797.495,421779
1580619807.494,421781
