epoch,value
1580485209.180,0
1580485219.180,0
1580485229.180,0
1580485239.180,10
1580485249.180,18
1580485259.180,25
1580485269.180,37
1580485279.180,41
1580485289.180,48
1580485309.181,57
1580485319.180,67
1580485329.180,75
1580485339.181,81
1580485349.180,90
1580485359.180,98
1580485369.180,105
1580485379.182,113
1580485389.180,120
1580485399.180,126
1580485409.180,135
1580485419.180,140
1580485429.180,151
1580485439.180,157
1580485449.180,165
1580485469.180,180
1580485479.180,187
1580485489.180,198
1580485499.180,210
1580485509.180,217
1580485519.180,228
1580485539.184,236
1580485549.180,236
1580485559.180,236
1580485569.184,236
1580485579.180,236
1580485589.180,236
1580485599.180,236
1580485609.180,236
1580485619.181,236
1580485629.180,236
1580485639.180,236
1580485649.180,236
1580485659.180,236
1580485669.180,236
1580485679.180,236
1580485689.180,236
1580485699.180,236
1580485709.180,237
1580485719.180,237
1580485729.180,237
1580485739.180,237
1580485749.180,237
1580485759.180,237
1580485769.180,237
1580485779.183,237
1580485789.180,237
1580485799.180,237
1580485809.180,237
1580485819.180,237
1580485829.180,237
1580485839.180,238
1580485849.180,238
1580485859.180,238
1580485869.180,238
1580485879.180,238
1580485889.180,238
1580485899.180,238
1580485909.180,238
1580485919.180,238
1580485929.180,238
1580485939.180,238
1580485949.180,238
1580485959.180,239
1580485969.180,239
1580485979.180,239
1580485989.180,239
1580485999.180,239
1580486009.180,239
1580486019.180,239
1580486029.180,239
1580486039.180,239
1580486049.180,240
1580486059.180,240
1580486069.180,240
1580486079.180,240
1580486089.180,240
1580486099.180,240
1580486109.180,240
1580486119.180,240
1580486129.180,240
1580486139.180,240
1580486149.180,240
1580486159.180,240
1580486169.180,240
1580486179.180,240
1580486189.180,240
1580486199.180,240
1580486209.180,240
1580486219.180,240
1580486229.180,241
1580486239.180,241
1580486249.180,241
1580486259.180,241
1580486269.180,241
1580486279.180,241
1580486289.180,241
1580486299.184,241
1580486309.180,241
1580486319.180,241
1580486329.180,241
1580486339.180,241
1580486349.180,241
1580486359.180,241
1580486369.180,241
1580486379.180,241
1580486389.180,241
1580486399.180,241
1580486409.180,241
1580486419.180,241
1580486429.180,241
1580486439.180,241
1580486449.180,241
1580486459.180,242
1580486469.180,242
1580486479.180,242
1580486489.180,242
1580486499.180,242
1580486509.180,242
1580486519.180,242
1580486529.180,242
1580486539.181,242
1580486549.180,242
1580486559.180,242
1580486569.180,242
1580486579.180,242
1580486589.180,242
1580486599.180,242
1580486609.180,242
1580486619.180,242
1580486629.180,243
1580486639.180,243
1580486649.180,243
1580486659.180,243
1580486669.180,243
1580486679.180,243
1580486689.180,243
1580486699.180,243
1580486709.180,243
1580486719.180,243
1580486729.180,243
1580486739.180,244
