epoch,value
1580237625.412,40046
1580237635.394,40046
1580237645.395,40046
1580237655.394,40046
1580237665.395,40047
1580237675.394,40047
1580237685.394,40047
1580237695.394,40047
1580237705.394,40047
1580237715.396,40047
1580237725.394,40047
1580237735.395,40047
1580237745.394,40047
1580237755.394,40047
1580237765.394,40047
1580237775.394,40047
1580237785.394,40048
1580237795.394,40048
1580237805.396,40048
1580237815.394,40048
1580237825.394,40048
1580237835.396,40048
1580237845.394,40049
1580237855.394,40049
1580237865.394,40049
1580237875.394,40049
1580237885.394,40049
1580237895.394,40049
1580237905.394,40049
1580237915.394,40049
1580237925.394,40050
1580237935.394,40050
1580237945.394,40050
1580237955.394,40050
1580237965.394,40050
1580237975.394,40050
1580237985.396,40050
1580237995.394,40050
1580238005.394,40050
1580238015.394,40050
1580238025.394,40051
1580238035.394,40051
1580238045.394,40051
1580238055.394,40051
1580238065.394,40052
1580238075.394,40052
1580238085.394,40052
1580238095.394,40052
1580238105.394,40052
1580238115.394,40052
1580238125.394,40052
1580238135.394,40052
1580238145.394,40052
1580238155.394,40052
1580238165.394,40052
1580238175.395,40052
1580238185.394,40052
1580238195.394,40052
1580238205.394,40052
1580238215.394,40052
1580238225.394,40052
1580238235.394,40052
1580238245.394,40052
1580238255.394,40054
1580238265.394,40055
1580238275.394,40055
1580238285.394,40055
1580238295.394,40055
1580238305.394,40056
1580238315.394,40056
1580238325.394,40056
1580238335.396,40056
1580238345.394,40056
1580238355.394,40056
1580238365.394,40056
1580238375.394,40056
1580238385.395,40056
1580238395.394,40056
1580238405.394,40057
1580238415.394,40057
1580238425.394,40057
1580238435.394,40057
1580238445.394,40057
1580238455.394,40057
1580238465.394,40058
1580238475.394,40058
1580238485.394,40058
1580238495.394,40058
1580238505.394,40058
1580238515.394,40058
1580238525.394,40058
1580238535.395,40058
1580238545.394,40058
1580238555.395,40058
1580238565.394,40058
1580238575.394,40059
1580238585.394,40059
1580238595.395,40059
1580238605.395,40059
1580238615.394,40059
1580238625.394,40059
1580238635.394,40059
1580238645.394,40059
1580238655.394,40060
1580238665.394,40060
1580238675.394,40060
1580238685.394,40060
1580238695.395,40060
1580238705.394,40060
1580238715.394,40060
1580238725.394,40060
1580238735.394,40060
1580238745.395,40060
1580238755.397,40061
1580238765.394,40062
1580238775.394,40062
1580238785.394,40062
1580238795.394,40062
1580238805.394,40062
1580238815.395,40062
1580238825.394,40062
1580238835.394,40062
1580238845.394,40062
1580238855.394,40062
1580238865.394,40062
1580238875.394,40062
1580238885.394,40063
1580238895.394,40063
1580238905.395,40063
1580238915.394,40063
1580238925.394,40063
1580238935.394,40063
1580238945.394,40063
1580238955.394,40063
1580238965.394,40063
1580238975.394,40063
1580238985.394,40063
1580238995.394,40063
1580239005.394,40063
1580239015.394,40063
1580239025.397,40063
1580239035.394,40063
1580239045.394,40063
1580239055.394,40063
