epoch,value
1579808603.999,50951
1579808613.983,50951
1579808623.981,50951
1579808633.982,50951
1579808643.981,50952
1579808653.981,50952
1579808663.981,50952
1579808673.981,50952
1579808683.981,50953
1579808693.981,50953
1579808703.981,50953
1579808713.981,50953
1579808723.982,50953
1579808733.981,50953
1579808743.981,50953
1579808753.981,50953
1579808763.981,50953
1579808773.982,50953
1579808783.981,50953
1579808793.981,50953
1579808803.981,50953
1579808813.981,50953
1579808823.981,50953
1579808833.981,50953
1579808843.981,50953
1579808853.981,50953
1579808863.981,50953
1579808873.981,50953
1579808883.981,50954
1579808893.981,50954
1579808903.982,50954
1579808913.981,50954
1579808923.981,50954
1579808933.983,50954
1579808943.981,50954
1579808953.981,50954
1579808963.981,50954
1579808973.981,50954
1579808983.981,50954
1579808993.983,50954
1579809003.981,50954
1579809013.981,50954
1579809023.981,50954
1579809033.981,50954
1579809043.981,50954
1579809053.981,50954
1579809063.982,50954
1579809073.981,50954
1579809083.981,50954
1579809093.982,50954
1579809103.981,50954
1579809113.980,50956
1579809123.981,50956
1579809133.981,50956
1579809143.981,50956
1579809153.981,50958
1579809163.982,50958
1579809173.980,50959
1579809183.981,50959
1579809193.981,50959
1579809203.981,50961
1579809213.980,50962
1579809223.981,50962
1579809233.981,50962
1579809243.980,50962
1579809253.981,50962
1579809263.981,50963
1579809273.981,50963
1579809283.981,50963
1579809293.982,50963
1579809303.982,50963
1579809313.981,50963
1579809323.982,50963
1579809333.981,50963
1579809343.981,50963
1579809353.981,50963
1579809363.980,50963
1579809373.981,50963
1579809383.981,50963
1579809393.981,50964
1579809403.981,50964
1579809413.982,50964
1579809423.981,50964
1579809433.982,50964
1579809443.981,50967
1579809453.981,50967
1579809463.981,50967
1579809473.980,50967
1579809483.981,50967
1579809493.982,50967
1579809503.981,50967
1579809513.981,50967
1579809523.981,50967
1579809533.981,50968
1579809543.981,50968
1579809553.982,50968
1579809563.982,50968
1579809573.982,50968
1579809583.981,50968
1579809593.981,50968
1579809603.981,50968
1579809613.982,50968
1579809623.981,50969
1579809633.981,50969
1579809643.981,50969
1579809653.982,50969
1579809663.980,50969
1579809673.981,50969
1579809683.981,50970
1579809693.984,50970
1579809703.982,50970
1579809713.981,50970
1579809723.982,50971
1579809733.981,50971
1579809743.981,50971
1579809753.983,50971
1579809763.981,50971
1579809773.981,50971
1579809783.981,50971
1579809793.981,50971
1579809803.981,50971
1579809813.982,50971
1579809823.981,50971
1579809833.981,50972
1579809843.981,50972
1579809853.982,50972
1579809863.980,50972
1579809873.981,50972
1579809883.981,50972
1579809893.981,50972
1579809903.980,50973
1579809913.981,50974
1579809923.981,50974
1579809933.981,50974
1579809943.981,50974
1579809953.981,50974
1579809963.981,50974
1579809973.980,50974
1579809983.980,50974
1579809993.981,50974
1579810003.981,50974
1579810013.981,50974
1579810023.983,50974
1579810033.981,50974
1579810043.981,50975
1579810053.981,50975
1579810063.981,50975
1579810073.982,50975
1579810083.983,50976
1579810093.981,50976
1579810103.981,50976
1579810113.981,50976
1579810123.981,50976
1579810133.981,50977
1579810143.981,50977
1579810153.981,50978
1579810163.981,50978
