epoch,value
1580242462.509,40097
1580242472.491,40097
1580242482.491,40097
1580242492.491,40097
1580242502.491,40097
1580242512.491,40097
1580242522.492,40097
1580242532.491,40097
1580242542.491,40097
1580242552.492,40097
1580242562.491,40097
1580242572.494,40097
1580242582.491,40097
1580242592.492,40097
1580242602.491,40097
1580242612.491,40097
1580242622.491,40098
1580242632.491,40098
1580242642.492,40098
1580242652.491,40098
1580242662.491,40098
1580242672.493,40098
1580242682.491,40098
1580242692.491,40098
1580242702.491,40099
1580242712.491,40099
1580242722.492,40099
1580242732.495,40099
1580242742.491,40099
1580242752.491,40099
1580242762.491,40099
1580242772.491,40099
1580242782.493,40099
1580242792.492,40099
1580242802.492,40099
1580242812.494,40100
1580242822.492,40100
1580242832.491,40100
1580242842.491,40100
1580242852.491,40100
1580242862.491,40100
1580242872.491,40100
1580242882.491,40100
1580242892.492,40100
1580242902.491,40100
1580242912.491,40100
1580242922.491,40100
1580242932.491,40100
1580242942.491,40102
1580242952.492,40102
1580242962.492,40102
1580242972.492,40102
1580242982.491,40102
1580242992.491,40102
1580243002.491,40102
1580243012.493,40102
1580243022.491,40102
1580243032.491,40102
1580243042.491,40102
1580243052.491,40102
1580243062.491,40102
1580243072.493,40102
1580243082.491,40103
1580243092.491,40103
1580243102.491,40103
1580243112.491,40103
1580243122.491,40103
1580243132.493,40103
1580243142.492,40103
1580243152.494,40103
1580243162.491,40103
1580243172.491,40103
1580243182.492,40103
1580243192.491,40103
1580243202.492,40103
1580243212.491,40104
1580243222.493,40104
1580243232.491,40104
1580243242.493,40104
1580243252.491,40104
1580243262.493,40105
1580243272.491,40106
1580243282.491,40106
1580243292.492,40106
1580243302.491,40106
1580243312.494,40106
1580243322.491,40106
1580243332.491,40106
1580243342.491,40106
1580243352.492,40106
1580243362.491,40106
1580243372.491,40106
1580243382.496,40106
1580243392.491,40107
1580243402.491,40107
1580243412.492,40107
1580243422.493,40107
1580243432.491,40107
1580243442.491,40107
1580243452.491,40107
1580243462.493,40107
1580243472.491,40107
1580243482.491,40107
1580243492.491,40107
1580243502.491,40107
1580243512.491,40108
1580243522.491,40108
1580243532.491,40108
1580243542.491,40108
1580243552.491,40108
1580243562.491,40108
1580243572.491,40109
1580243582.491,40109
1580243592.491,40109
1580243602.491,40109
1580243612.491,40109
1580243622.491,40109
1580243632.491,40109
1580243642.491,40109
1580243652.492,40109
1580243662.492,40109
1580243672.491,40109
1580243682.491,40110
1580243692.491,40110
1580243702.492,40110
1580243712.491,40110
1580243722.491,40110
1580243732.493,40110
1580243742.494,40111
1580243752.492,40111
1580243762.492,40111
1580243772.491,40111
1580243782.491,40111
1580243792.492,40111
1580243802.491,40111
1580243812.491,40111
1580243822.492,40111
1580243832.494,40111
1580243842.491,40111
1580243852.491,40111
1580243862.491,40111
1580243872.491,40111
1580243882.496,40111
1580243892.493,40111
1580243902.491,40111
1580243912.492,40111
1580243922.491,40112
1580243932.493,40112
1580243942.491,40112
1580243952.492,40112
1580243962.491,40112
1580243972.491,40112
1580243982.493,40112
1580243992.491,40112
1580244002.491,40112
1580244012.491,40112
1580244022.491,40112
1580244032.491,40112
1580244042.492,40112
1580244052.491,40112
1580244062.491,40112
1580244072.491,40112
1580244082.491,40112
1580244092.491,40112
1580244102.491,40113
1580244112.491,40113
1580244122.491,40113
1580244132.492,40113
1580244142.491,40113
1580244152.491,40113
1580244162.491,40113
1580244172.491,40113
1580244182.493,40113
1580244192.491,40113
1580244202.493,40113
1580244212.491,40113
1580244222.491,40114
1580244232.493,40114
1580244242.491,40114
1580244252.491,40114
1580244262.492,40114
1580244272.491,40114
1580244282.497,40114
1580244292.491,40114
1580244302.491,40114
1580244312.491,40114
1580244322.491,40115
1580244332.493,40115
1580244342.491,40115
1580244352.491,40115
1580244362.493,40115
1580244372.491,40115
1580244382.492,40115
1580244392.491,40115
1580244402.491,40115
1580244412.492,40115
1580244422.491,40115
1580244432.491,40115
1580244442.491,40115
1580244452.491,40115
1580244462.493,40115
1580244472.492,40115
1580244482.491,40116
1580244492.491,40116
1580244502.492,40116
1580244512.493,40116
1580244522.491,40116
1580244532.491,40116
1580244542.492,40116
1580244552.493,40116
1580244562.494,40116
1580244572.493,40116
1580244582.491,40117
1580244592.491,40117
1580244602.491,40117
1580244612.492,40117
1580244622.491,40117
1580244632.491,40117
1580244642.493,40117
1580244652.491,40117
1580244662.491,40117
1580244672.491,40117
1580244682.491,40118
1580244692.491,40118
1580244702.491,40118
1580244712.492,40118
1580244722.491,40118
1580244732.491,40118
1580244742.491,40118
1580244752.491,40118
1580244762.492,40118
1580244772.491,40118
1580244782.491,40118
1580244792.494,40118
1580244802.492,40118
1580244812.491,40118
1580244822.494,40119
1580244832.492,40120
1580244842.491,40120
1580244852.493,40120
1580244862.493,40120
1580244872.491,40121
1580244882.491,40121
1580244892.492,40122
1580244902.491,40122
1580244912.492,40122
1580244922.492,40122
1580244932.491,40122
1580244942.491,40122
1580244952.492,40122
1580244962.494,40122
1580244972.492,40122
1580244982.491,40122
1580244992.491,40122
1580245002.491,40122
1580245012.491,40122
1580245022.491,40122
1580245032.491,40122
1580245042.492,40122
1580245052.492,40124
1580245062.491,40124
1580245072.492,40124
1580245082.494,40124
1580245092.493,40124
1580245102.492,40124
1580245112.493,40124
1580245122.491,40124
1580245132.491,40124
1580245142.491,40125
1580245152.491,40125
1580245162.491,40125
1580245172.491,40125
1580245182.491,40126
1580245192.491,40126
1580245202.491,40126
1580245212.491,40127
1580245222.491,40127
