epoch,value
1580485209.170,0
1580485219.170,0
1580485229.170,0
1580485239.170,13
1580485249.170,18
1580485259.170,27
1580485269.170,36
1580485279.170,38
1580485289.170,40
1580485299.170,43
1580485319.170,49
1580485329.170,50
1580485339.170,67
1580485349.170,68
1580485359.170,79
1580485369.170,83
1580485379.170,95
1580485389.170,95
1580485399.170,103
1580485409.170,104
1580485419.170,111
1580485429.170,111
1580485439.170,118
1580485449.170,133
1580485459.170,146
1580485469.170,152
1580485479.170,157
1580485489.170,164
1580485499.170,164
1580485509.170,165
1580485519.170,166
1580485529.170,168
1580485539.170,168
1580485549.170,168
1580485559.170,168
1580485569.170,168
1580485579.170,168
1580485589.170,169
1580485599.170,169
1580485609.170,169
1580485619.170,169
1580485629.170,169
1580485639.170,169
1580485649.170,169
1580485659.170,169
1580485669.170,169
1580485679.170,169
1580485689.170,169
1580485699.170,169
1580485709.170,169
1580485719.170,169
1580485729.170,169
1580485739.170,169
1580485749.170,169
1580485759.170,169
1580485769.170,169
1580485779.170,169
1580485789.170,169
1580485799.170,169
1580485809.170,169
1580485819.170,169
1580485829.170,169
1580485839.170,169
1580485849.170,169
1580485859.170,169
1580485869.170,169
1580485879.170,169
1580485889.170,169
1580485899.170,169
1580485909.170,169
1580485919.170,169
1580485929.170,169
1580485939.170,169
1580485949.170,169
1580485959.170,169
1580485969.170,169
1580485979.170,169
1580485989.170,169
1580485999.170,169
1580486009.170,170
1580486019.170,170
1580486029.170,170
1580486039.170,170
1580486049.170,170
1580486059.170,170
1580486069.170,170
1580486079.170,170
1580486089.170,170
1580486099.170,170
1580486109.170,170
1580486119.170,170
1580486129.170,170
1580486139.170,170
1580486149.170,170
1580486159.170,170
1580486169.170,170
1580486179.170,170
1580486189.170,170
1580486199.170,170
1580486209.170,170
1580486219.170,170
1580486229.170,170
1580486239.170,170
1580486249.170,170
1580486259.170,170
1580486269.170,170
1580486279.170,170
1580486289.170,170
1580486299.170,170
1580486309.170,170
1580486319.170,170
1580486329.170,170
1580486339.172,170
1580486349.170,170
1580486359.170,170
1580486369.170,170
1580486379.170,170
1580486389.170,170
1580486399.170,171
1580486409.170,171
1580486419.170,171
1580486429.170,171
1580486439.170,171
1580486449.170,171
1580486459.170,171
1580486469.170,171
1580486479.170,171
1580486489.170,171
1580486499.170,171
1580486509.170,171
1580486519.170,171
1580486529.170,171
1580486539.170,171
1580486549.170,171
1580486559.170,171
1580486569.170,171
1580486579.170,171
1580486589.170,171
1580486599.170,171
1580486609.170,171
1580486619.170,171
1580486629.170,171
1580486639.170,171
1580486649.170,171
1580486659.170,171
1580486669.170,171
1580486679.170,171
1580486689.170,171
1580486699.170,171
1580486709.170,171
1580486719.170,171
1580486729.170,171
1580486739.170,172
