epoch,value
1580476344.398,55166
1580476354.381,55166
1580476364.381,55166
1580476374.381,55166
1580476384.382,55166
1580476394.381,55166
1580476404.381,55166
1580476414.381,55166
1580476424.381,55166
1580476434.381,55166
1580476444.381,55166
1580476454.381,55166
1580476464.381,55167
1580476474.381,55167
1580476484.382,55167
1580476494.381,55168
1580476504.383,55168
1580476514.383,55168
1580476524.381,55168
1580476534.382,55168
1580476544.381,55170
1580476554.381,55172
1580476564.381,55172
1580476574.381,55172
1580476584.382,55172
1580476594.381,55172
1580476604.382,55172
1580476614.382,55172
1580476624.384,55172
1580476634.381,55172
1580476644.381,55172
1580476654.381,55172
1580476664.381,55172
1580476674.382,55172
1580476684.381,55172
1580476694.381,55172
1580476704.381,55172
1580476714.381,55172
1580476724.381,55172
1580476734.381,55172
1580476744.381,55172
1580476754.381,55172
1580476764.382,55172
1580476774.381,55172
1580476784.381,55172
1580476794.381,55172
1580476804.381,55172
1580476814.381,55172
1580476824.381,55172
1580476834.381,55172
1580476844.381,55172
1580476854.381,55174
1580476864.381,55174
1580476874.382,55174
1580476884.382,55174
1580476894.381,55174
1580476904.382,55174
1580476914.381,55174
1580476924.381,55174
1580476934.381,55174
1580476944.381,55174
1580476954.381,55174
1580476964.381,55174
1580476974.382,55174
1580476984.381,55174
1580476994.381,55176
1580477004.382,55176
1580477014.381,55176
1580477024.381,55176
1580477034.381,55176
1580477044.381,55176
1580477054.382,55176
1580477064.381,55176
1580477074.381,55176
1580477084.381,55176
1580477094.381,55176
1580477104.381,55177
1580477114.381,55177
1580477124.381,55177
1580477134.381,55177
1580477144.381,55177
1580477154.381,55177
1580477164.381,55177
1580477174.381,55177
1580477184.381,55177
1580477194.381,55178
1580477204.381,55178
1580477214.381,55178
1580477224.381,55178
1580477234.381,55178
1580477244.381,55178
1580477254.381,55178
1580477264.381,55179
1580477274.381,55179
1580477284.381,55179
1580477294.381,55179
1580477304.381,55179
1580477314.381,55179
1580477324.384,55179
1580477334.384,55179
1580477344.381,55179
1580477354.381,55179
1580477364.382,55180
1580477374.381,55180
1580477384.381,55180
1580477394.381,55182
1580477404.381,55182
1580477414.381,55182
1580477424.381,55182
1580477434.381,55182
1580477444.381,55182
1580477454.382,55182
1580477464.381,55182
1580477474.381,55182
1580477484.381,55182
1580477494.381,55182
1580477504.381,55182
1580477514.381,55182
1580477524.381,55182
1580477534.381,55182
1580477544.381,55182
1580477554.383,55182
1580477564.381,55182
1580477574.381,55182
1580477584.381,55182
1580477594.381,55182
1580477604.381,55182
1580477614.381,55182
1580477624.381,55182
1580477634.381,55182
1580477644.382,55182
1580477654.381,55182
1580477664.381,55182
1580477674.381,55182
1580477684.381,55182
1580477694.381,55182
1580477704.383,55182
1580477714.382,55182
1580477724.381,55182
1580477734.381,55182
1580477744.383,55182
1580477754.383,55182
1580477764.381,55182
1580477774.381,55182
1580477784.381,55182
1580477794.381,55182
1580477804.381,55182
1580477814.381,55182
1580477824.381,55182
1580477834.381,55182
1580477844.381,55182
1580477854.381,55182
1580477864.382,55182
1580477874.381,55182
1580477884.381,55182
1580477894.383,55182
1580477904.381,55182
