epoch,value
1579803201.599,237513
1579803211.578,237514
1579803221.577,237514
1579803231.575,237514
1579803241.575,237516
1579803251.575,237516
1579803261.577,237517
1579803271.575,237520
1579803281.577,237534
1579803291.576,237542
1579803301.579,237547
1579803311.575,237554
1579803321.575,237563
1579803331.575,237568
1579803341.575,237576
1579803351.575,237590
1579803361.575,237592
1579803371.575,237603
1579803381.575,237605
1579803391.575,237614
1579803401.575,237622
1579803411.575,237626
1579803421.575,237643
1579803431.575,237643
1579803441.575,237650
1579803451.575,237654
1579803461.577,237669
1579803471.575,237676
1579803481.575,237687
1579803491.575,237695
1579803501.575,237702
1579803511.575,237712
1579803521.575,237719
1579803531.575,237732
1579803541.575,237738
1579803551.575,237748
1579803561.576,237749
1579803571.575,237750
1579803581.575,237750
1579803591.575,237752
1579803601.576,237754
1579803611.575,237754
1579803621.577,237754
1579803631.576,237754
1579803641.575,237755
1579803651.576,237755
1579803661.575,237755
1579803671.575,237758
1579803681.575,237759
1579803691.575,237759
1579803701.575,237760
1579803711.575,237760
1579803721.575,237761
1579803731.575,237761
1579803741.575,237763
1579803751.575,237763
1579803761.575,237763
1579803771.575,237764
1579803781.575,237766
1579803791.576,237766
1579803801.575,237768
1579803811.575,237768
1579803821.575,237769
1579803831.575,237769
1579803841.576,237769
1579803851.577,237771
1579803861.576,237771
1579803871.576,237772
1579803881.575,237773
1579803891.575,237773
1579803901.575,237776
1579803911.575,237777
1579803921.575,237777
1579803931.575,237777
1579803941.575,237778
1579803951.575,237778
1579803961.575,237778
1579803971.575,237778
1579803981.577,237778
1579803991.575,237778
1579804001.576,237778
1579804011.575,237778
1579804021.575,237779
1579804031.576,237780
1579804041.575,237781
1579804051.575,237783
1579804061.575,237785
1579804071.575,237786
1579804081.575,237786
1579804091.575,237787
1579804101.578,237787
1579804111.576,237787
1579804121.575,237793
1579804131.575,237794
1579804141.575,237795
1579804151.575,237796
1579804161.575,237797
1579804171.575,237797
1579804181.575,237797
1579804191.575,237798
1579804201.575,237798
1579804211.575,237798
1579804221.575,237799
1579804231.576,237799
1579804241.575,237801
1579804251.575,237801
1579804261.575,237802
1579804271.575,237803
1579804281.575,237803
1579804291.575,237804
1579804301.575,237804
1579804311.575,237804
1579804321.575,237804
1579804331.575,237804
1579804341.575,237805
1579804351.576,237805
1579804361.575,237807
1579804371.575,237808
1579804381.575,237809
1579804391.575,237810
1579804401.575,237810
1579804411.575,237812
1579804421.575,237814
1579804431.575,237814
1579804441.575,237814
1579804451.575,237814
1579804461.575,237814
1579804471.575,237816
1579804481.575,237816
1579804491.575,237816
1579804501.575,237816
1579804511.575,237819
1579804521.575,237822
1579804531.575,237824
1579804541.578,237824
1579804551.575,237824
1579804561.575,237824
1579804571.575,237825
1579804581.576,237826
1579804591.575,237826
1579804601.575,237827
1579804611.575,237829
1579804621.575,237829
1579804631.575,237830
1579804641.575,237830
1579804651.576,237830
1579804661.575,237831
1579804671.575,237831
1579804681.575,237831
1579804691.575,237831
1579804701.575,237831
1579804711.575,237831
1579804721.575,237832
1579804731.576,237833
1579804741.575,237833
1579804751.575,237834
1579804761.576,237835
