epoch,value
1580326807.532,54231
1580326817.511,54232
1580326827.510,54233
1580326837.509,54233
1580326847.509,54233
1580326857.509,54233
1580326867.509,54233
1580326877.509,54233
1580326887.509,54233
1580326897.509,54234
1580326907.509,54234
1580326917.509,54234
1580326927.510,54235
1580326937.511,54236
1580326947.510,54236
1580326957.509,54236
1580326967.509,54236
1580326977.509,54237
1580326987.509,54238
1580326997.509,54238
1580327007.509,54239
1580327017.509,54239
1580327027.509,54239
1580327037.509,54239
1580327047.509,54239
1580327057.509,54239
1580327067.509,54239
1580327077.510,54239
1580327087.509,54239
1580327097.509,54239
1580327107.509,54240
1580327117.511,54240
1580327127.509,54240
1580327137.509,54240
1580327147.509,54240
1580327157.509,54240
1580327167.509,54240
1580327177.509,54240
1580327187.509,54240
1580327197.509,54240
1580327207.509,54240
1580327217.509,54240
1580327227.509,54240
1580327237.509,54240
1580327247.509,54240
1580327257.509,54240
1580327267.509,54240
1580327277.509,54240
1580327287.509,54240
1580327297.509,54240
1580327307.509,54240
1580327317.509,54240
1580327327.509,54240
1580327337.510,54240
1580327347.509,54240
1580327357.509,54240
1580327367.509,54240
1580327377.509,54240
1580327387.509,54240
1580327397.509,54240
1580327407.509,54240
1580327417.509,54240
1580327427.509,54240
1580327437.509,54240
1580327447.509,54240
1580327457.509,54240
1580327467.509,54241
1580327477.509,54241
1580327487.509,54241
1580327497.509,54241
1580327507.509,54241
1580327517.509,54241
1580327527.509,54241
1580327537.509,54241
1580327547.512,54241
1580327557.509,54241
1580327567.509,54243
1580327577.509,54243
1580327587.509,54243
1580327597.509,54243
1580327607.509,54243
1580327617.509,54243
1580327627.509,54243
1580327637.509,54243
1580327647.509,54246
1580327657.509,54246
1580327667.509,54246
1580327677.509,54248
1580327687.509,54248
1580327697.512,54248
1580327707.509,54248
1580327717.509,54248
1580327727.509,54248
1580327737.509,54248
1580327747.509,54248
1580327757.510,54251
1580327767.509,54251
1580327777.509,54251
1580327787.510,54251
1580327797.509,54251
1580327807.509,54251
1580327817.510,54251
1580327827.510,54251
1580327837.509,54252
1580327847.509,54253
1580327857.511,54253
1580327867.509,54255
1580327877.509,54256
1580327887.509,54257
1580327897.509,54258
1580327907.509,54259
1580327917.511,54260
1580327927.509,54262
1580327937.509,54263
1580327947.509,54263
1580327957.510,54263
1580327967.509,54263
1580327977.509,54263
1580327987.512,54263
1580327997.509,54264
1580328007.509,54265
1580328017.509,54265
1580328027.509,54265
1580328037.509,54265
1580328047.509,54265
1580328057.509,54265
1580328067.509,54265
1580328077.509,54266
1580328087.509,54266
1580328097.509,54266
1580328107.509,54266
1580328117.509,54266
1580328127.509,54266
1580328137.509,54266
1580328147.509,54266
1580328157.509,54266
1580328167.511,54266
1580328177.509,54266
1580328187.509,54268
1580328197.509,54268
1580328207.509,54268
1580328217.509,54268
1580328227.511,54268
1580328237.509,54269
1580328247.509,54269
1580328257.509,54269
1580328267.509,54270
1580328277.509,54270
1580328287.510,54270
1580328297.509,54270
1580328307.509,54270
1580328317.509,54270
1580328327.509,54271
1580328337.510,54271
1580328347.509,54271
1580328357.509,54271
1580328367.509,54271
1580328377.509,54271
1580328387.509,54272
1580328397.509,54272
1580328407.509,54272
1580328417.509,54272
1580328427.510,54272
1580328437.509,54272
1580328447.509,54272
1580328457.509,54272
1580328467.511,54273
1580328477.509,54273
1580328487.509,54273
1580328497.509,54275
1580328507.509,54275
1580328517.509,54276
1580328527.509,54277
1580328537.509,54278
1580328547.509,54278
1580328557.509,54278
1580328567.511,54278
1580328577.509,54278
1580328587.509,54278
1580328597.509,54278
1580328607.509,54278
1580328617.510,54278
1580328627.509,54278
1580328637.511,54278
1580328647.509,54278
1580328657.512,54278
1580328667.509,54278
1580328677.511,54278
1580328687.509,54278
1580328697.509,54279
1580328707.509,54280
1580328717.509,54280
1580328727.509,54280
1580328737.509,54280
1580328747.509,54281
1580328757.509,54281
1580328767.509,54282
1580328777.510,54282
1580328787.509,54282
1580328797.513,54282
1580328807.509,54282
1580328817.509,54282
1580328827.509,54282
1580328837.509,54282
1580328847.509,54282
1580328857.509,54282
1580328867.509,54282
1580328877.509,54283
1580328887.509,54283
1580328897.509,54283
1580328907.510,54283
1580328917.509,54283
1580328927.509,54283
1580328937.509,54283
1580328947.509,54285
1580328957.509,54285
1580328967.509,54285
1580328977.509,54285
1580328987.509,54285
1580328997.510,54285
1580329007.510,54285
1580329017.509,54285
1580329027.511,54285
1580329037.509,54285
1580329047.509,54285
1580329057.510,54285
1580329067.509,54285
1580329077.509,54285
1580329087.509,54285
1580329097.509,54285
1580329107.509,54285
1580329117.509,54285
1580329127.509,54285
1580329137.509,54285
1580329147.513,54285
1580329157.509,54285
1580329167.509,54285
1580329177.509,54285
1580329187.509,54285
1580329197.509,54286
1580329207.509,54288
1580329217.509,54288
1580329227.509,54288
1580329237.509,54288
1580329247.509,54288
1580329257.510,54288
1580329267.509,54288
1580329277.509,54288
1580329287.509,54288
1580329297.509,54288
1580329307.511,54288
1580329317.509,54288
1580329327.509,54288
1580329337.509,54288
1580329347.510,54288
1580329357.509,54288
1580329367.509,54288
1580329377.509,54288
1580329387.509,54288
1580329397.511,54288
1580329407.509,54288
1580329417.509,54288
1580329427.509,54288
1580329437.509,54288
1580329447.509,54288
1580329457.509,54288
1580329467.509,54288
1580329477.509,54289
1580329487.509,54289
1580329497.510,54289
1580329507.509,54289
1580329517.509,54289
1580329527.509,54289
1580329537.509,54289
1580329547.510,54289
1580329557.509,54289
1580329567.509,54289
1580329577.509,54289
1580329587.509,54290
1580329597.510,54291
1580329607.509,54292
1580329617.510,54292
1580329627.511,54292
1580329637.510,54292
1580329647.509,54292
1580329657.509,54292
1580329667.512,54292
1580329677.511,54292
1580329687.509,54292
1580329697.509,54292
1580329707.509,54292
1580329717.509,54292
1580329727.509,54292
1580329737.509,54292
1580329747.509,54292
1580329757.509,54292
1580329767.510,54292
1580329777.513,54292
1580329787.509,54292
1580329797.509,54292
1580329807.509,54292
1580329817.509,54292
1580329827.511,54292
1580329837.510,54292
1580329847.510,54292
1580329857.509,54292
1580329867.509,54292
1580329877.510,54292
1580329887.509,54292
1580329897.509,54292
1580329907.509,54292
1580329917.509,54292
1580329927.509,54292
1580329937.509,54292
1580329947.509,54292
1580329957.510,54294
1580329967.509,54294
1580329977.509,54294
1580329987.509,54294
1580329997.509,54294
1580330007.509,54294
1580330017.509,54294
1580330027.509,54294
1580330037.509,54294
1580330047.509,54294
1580330057.509,54295
1580330067.509,54295
1580330077.509,54296
1580330087.509,54296
1580330097.510,54296
1580330107.509,54296
1580330117.509,54296
1580330127.509,54296
1580330137.509,54296
1580330147.509,54296
1580330157.509,54297
1580330167.509,54297
1580330177.509,54297
1580330187.509,54297
1580330197.509,54297
1580330207.510,54297
1580330217.509,54297
1580330227.510,54298
1580330237.509,54298
1580330247.509,54298
1580330257.509,54298
1580330267.509,54298
1580330277.509,54298
1580330287.509,54298
1580330297.509,54298
1580330307.509,54298
1580330317.509,54298
1580330327.512,54298
1580330337.509,54298
1580330347.509,54298
1580330357.509,54298
1580330367.509,54298
1580330377.510,54298
1580330387.509,54298
1580330397.509,54298
1580330407.509,54298
1580330417.509,54298
1580330427.509,54298
1580330437.509,54298
1580330447.510,54298
1580330457.509,54298
1580330467.509,54298
1580330477.511,54298
1580330487.512,54298
1580330497.509,54298
1580330507.509,54298
1580330517.509,54299
1580330527.509,54299
1580330537.509,54299
1580330547.509,54299
1580330557.511,54299
1580330567.509,54299
1580330577.509,54299
1580330587.509,54299
1580330597.509,54301
1580330607.509,54301
1580330617.509,54301
1580330627.510,54301
1580330637.509,54301
1580330647.509,54301
1580330657.509,54301
1580330667.509,54301
1580330677.509,54303
1580330687.509,54304
1580330697.509,54304
1580330707.509,54304
1580330717.509,54304
1580330727.509,54304
1580330737.509,54304
1580330747.509,54304
1580330757.512,54304
1580330767.510,54304
1580330777.511,54304
1580330787.510,54304
1580330797.509,54304
1580330807.509,54304
1580330817.509,54304
1580330827.509,54304
1580330837.511,54306
1580330847.509,54306
1580330857.509,54306
1580330867.509,54306
1580330877.509,54306
1580330887.509,54306
1580330897.510,54306
1580330907.509,54306
1580330917.509,54306
1580330927.509,54306
1580330937.509,54306
1580330947.509,54308
1580330957.509,54308
1580330967.509,54308
1580330977.509,54308
1580330987.509,54308
1580330997.510,54308
1580331007.509,54309
1580331017.509,54309
1580331027.509,54311
1580331037.509,54311
1580331047.509,54311
1580331057.509,54311
1580331067.509,54311
1580331077.509,54312
1580331087.509,54312
1580331097.509,54312
1580331107.509,54312
1580331117.509,54313
1580331127.509,54313
1580331137.509,54313
1580331147.509,54313
1580331157.509,54315
1580331167.509,54315
1580331177.509,54315
1580331187.509,54315
1580331197.509,54315
1580331207.510,54315
1580331217.509,54315
1580331227.511,54315
1580331237.509,54315
1580331247.509,54315
1580331257.509,54315
1580331267.509,54315
1580331277.509,54315
1580331287.509,54315
1580331297.510,54315
1580331307.509,54315
1580331317.509,54315
1580331327.511,54315
1580331337.509,54315
1580331347.509,54315
1580331357.509,54315
1580331367.509,54315
1580331377.510,54315
1580331387.509,54315
1580331397.509,54315
1580331407.509,54315
1580331417.510,54315
1580331427.509,54315
1580331437.509,54315
1580331447.509,54316
1580331457.509,54316
1580331467.509,54316
1580331477.510,54316
1580331487.509,54316
1580331497.509,54317
1580331507.509,54317
1580331517.509,54317
1580331527.509,54317
1580331537.509,54317
1580331547.509,54317
1580331557.509,54317
1580331567.509,54317
1580331577.509,54317
1580331587.509,54317
1580331597.509,54317
1580331607.511,54317
1580331617.509,54317
1580331627.509,54318
1580331637.509,54318
1580331647.509,54318
1580331657.509,54318
1580331667.510,54318
1580331677.509,54318
1580331687.509,54318
1580331697.509,54318
1580331707.509,54318
1580331717.509,54318
1580331727.509,54318
1580331737.509,54318
1580331747.509,54318
1580331757.510,54318
1580331767.509,54318
1580331777.509,54318
1580331787.509,54318
1580331797.510,54318
1580331807.509,54318
1580331817.509,54320
1580331827.509,54320
1580331837.510,54320
1580331847.509,54320
1580331857.509,54320
1580331867.510,54320
1580331877.509,54320
1580331887.509,54320
1580331897.509,54320
1580331907.509,54320
1580331917.509,54320
1580331927.509,54320
1580331937.511,54320
1580331947.511,54320
1580331957.509,54320
1580331967.509,54320
1580331977.509,54320
1580331987.511,54320
1580331997.509,54320
1580332007.509,54320
1580332017.509,54320
1580332027.509,54320
1580332037.509,54322
1580332047.509,54322
1580332057.509,54323
1580332067.509,54323
1580332077.511,54323
1580332087.509,54323
1580332097.509,54323
1580332107.511,54323
1580332117.515,54323
1580332127.509,54323
1580332137.509,54323
1580332147.511,54323
1580332157.509,54323
1580332167.509,54323
1580332177.509,54323
1580332187.509,54323
1580332197.509,54323
1580332207.509,54324
1580332217.509,54324
1580332227.509,54324
1580332237.511,54324
1580332247.509,54324
1580332257.509,54324
1580332267.509,54324
1580332277.512,54324
1580332287.509,54324
1580332297.509,54324
1580332307.509,54324
1580332317.510,54324
1580332327.509,54324
1580332337.509,54324
1580332347.509,54324
1580332357.509,54324
1580332367.509,54324
1580332377.509,54324
1580332387.509,54324
1580332397.510,54325
1580332407.509,54325
1580332417.509,54325
1580332427.511,54326
1580332437.510,54326
1580332447.509,54328
1580332457.512,54328
1580332467.509,54328
1580332477.509,54328
1580332487.509,54328
1580332497.509,54328
1580332507.509,54328
1580332517.509,54328
1580332527.509,54328
1580332537.509,54328
1580332547.509,54328
1580332557.509,54328
1580332567.509,54328
1580332577.510,54328
1580332587.513,54328
1580332597.509,54328
1580332607.509,54328
1580332617.509,54328
1580332627.510,54328
1580332637.509,54328
1580332647.509,54329
1580332657.509,54329
1580332667.509,54329
1580332677.510,54329
1580332687.509,54329
1580332697.509,54329
1580332707.509,54330
1580332717.509,54330
1580332727.509,54330
1580332737.509,54330
1580332747.510,54330
1580332757.509,54331
1580332767.509,54331
1580332777.509,54331
1580332787.509,54331
1580332797.509,54331
1580332807.509,54331
1580332817.509,54331
1580332827.509,54331
1580332837.509,54331
1580332847.510,54331
1580332857.509,54331
1580332867.509,54331
1580332877.510,54331
1580332887.509,54332
1580332897.509,54332
1580332907.510,54332
1580332917.512,54332
1580332927.509,54332
1580332937.509,54332
1580332947.509,54332
1580332957.509,54332
1580332967.509,54332
1580332977.509,54333
1580332987.509,54333
1580332997.509,54333
1580333007.509,54333
1580333017.509,54334
1580333027.509,54334
1580333037.509,54334
1580333047.509,54336
1580333057.509,54337
1580333067.509,54337
1580333077.509,54337
1580333087.509,54338
1580333097.509,54338
1580333107.509,54340
1580333117.509,54341
1580333127.509,54341
1580333137.509,54341
1580333147.511,54342
1580333157.509,54342
1580333167.509,54342
1580333177.509,54342
1580333187.509,54342
1580333197.509,54342
1580333207.509,54343
1580333217.512,54343
1580333227.509,54343
1580333237.511,54343
1580333247.509,54343
1580333257.509,54343
1580333267.509,54343
1580333277.510,54344
1580333287.509,54344
1580333297.509,54344
1580333307.509,54344
1580333317.509,54345
1580333327.509,54345
1580333337.509,54345
1580333347.510,54345
1580333357.509,54345
1580333367.509,54345
1580333377.509,54345
1580333387.509,54345
1580333397.510,54346
1580333407.510,54346
1580333417.510,54346
1580333427.509,54346
1580333437.509,54346
1580333447.509,54348
1580333457.509,54348
1580333467.512,54348
1580333477.509,54349
1580333487.509,54349
1580333497.509,54349
1580333507.510,54349
1580333517.509,54349
1580333527.509,54350
1580333537.509,54350
1580333547.509,54350
1580333557.509,54350
1580333567.509,54350
1580333577.509,54350
1580333587.509,54350
1580333597.509,54350
1580333607.509,54350
1580333617.510,54350
1580333627.510,54350
1580333637.509,54350
1580333647.509,54350
1580333657.509,54351
1580333667.509,54351
1580333677.509,54351
1580333687.509,54351
1580333697.509,54351
1580333707.509,54351
1580333717.509,54351
1580333727.509,54351
1580333737.509,54351
1580333747.509,54352
1580333757.509,54352
1580333767.509,54352
1580333777.509,54352
1580333787.509,54352
1580333797.509,54352
1580333807.509,54352
1580333817.510,54352
1580333827.509,54352
1580333837.510,54352
1580333847.509,54352
1580333857.510,54352
1580333867.509,54352
1580333877.509,54352
1580333887.510,54352
1580333897.509,54352
1580333907.509,54352
1580333917.509,54352
1580333927.509,54352
1580333937.509,54352
1580333947.510,54352
1580333957.509,54352
1580333967.512,54353
1580333977.511,54353
1580333987.509,54353
1580333997.509,54353
1580334007.509,54355
1580334017.509,54355
1580334027.509,54355
1580334037.509,54355
1580334047.509,54355
1580334057.509,54355
1580334067.513,54355
1580334077.509,54355
1580334087.509,54355
1580334097.509,54355
1580334107.509,54355
1580334117.510,54355
1580334127.509,54355
1580334137.509,54355
1580334147.509,54355
1580334157.509,54355
1580334167.509,54355
1580334177.509,54355
1580334187.509,54355
1580334197.510,54355
1580334207.509,54355
1580334217.509,54355
1580334227.509,54355
1580334237.509,54355
1580334247.509,54355
1580334257.509,54355
1580334267.509,54355
1580334277.509,54356
1580334287.510,54357
1580334297.509,54357
1580334307.509,54357
1580334317.509,54357
1580334327.512,54357
1580334337.509,54357
1580334347.509,54357
1580334357.509,54357
1580334367.509,54357
