epoch,value
1580646603.235,423406
1580646613.216,423406
1580646623.216,423406
1580646633.216,423406
1580646643.216,423409
1580646653.216,423409
1580646663.218,423410
1580646673.216,423410
1580646683.216,423410
1580646693.216,423411
1580646703.217,423413
1580646713.216,423413
1580646723.217,423414
1580646733.218,423415
1580646743.216,423415
1580646753.217,423415
1580646763.216,423416
1580646773.220,423416
1580646783.216,423417
1580646793.216,423418
1580646803.216,423418
1580646813.216,423418
1580646823.216,423418
1580646833.216,423418
1580646843.217,423419
1580646853.216,423419
1580646863.216,423419
1580646873.216,423420
1580646883.216,423420
1580646893.216,423420
1580646903.216,423420
1580646913.216,423420
1580646923.217,423422
1580646933.216,423422
1580646943.216,423422
1580646953.217,423422
1580646963.216,423423
1580646973.216,423423
1580646983.216,423423
1580646993.216,423424
1580647003.216,423426
1580647013.216,423427
1580647023.216,423428
1580647033.216,423428
1580647043.217,423430
1580647053.216,423430
1580647063.216,423430
1580647073.216,423431
1580647083.216,423431
1580647093.216,423432
1580647103.216,423432
1580647113.216,423432
1580647123.217,423432
1580647133.216,423433
1580647143.217,423433
1580647153.216,423433
1580647163.217,423433
1580647173.216,423433
1580647183.216,423433
1580647193.216,423433
1580647203.216,423433
1580647213.217,423433
1580647223.216,423435
1580647233.216,423436
1580647243.216,423436
1580647253.217,423436
1580647263.216,423438
1580647273.216,423438
1580647283.216,423439
1580647293.216,423440
1580647303.216,423441
1580647313.216,423441
1580647323.216,423442
1580647333.216,423442
1580647343.216,423442
1580647353.216,423442
1580647363.218,423443
1580647373.216,423443
1580647383.216,423444
1580647393.216,423445
1580647403.218,423445
1580647413.216,423446
1580647423.216,423446
1580647433.216,423447
1580647443.216,423447
1580647453.216,423447
1580647463.218,423448
1580647473.216,423450
1580647483.216,423451
1580647493.216,423452
1580647503.216,423453
1580647513.216,423453
1580647523.216,423454
1580647533.216,423455
1580647543.216,423457
1580647553.218,423457
1580647563.216,423458
1580647573.216,423458
1580647583.216,423460
1580647593.216,423460
1580647603.216,423461
1580647613.216,423462
1580647623.217,423462
1580647633.216,423463
1580647643.216,423464
1580647653.216,423464
1580647663.216,423464
1580647673.216,423464
1580647683.216,423464
1580647693.217,423464
1580647703.216,423465
1580647713.216,423465
1580647723.217,423465
1580647733.216,423466
1580647743.216,423466
1580647753.218,423466
1580647763.218,423468
1580647773.216,423468
1580647783.216,423469
1580647793.216,423469
1580647803.216,423469
1580647813.216,423469
1580647823.216,423472
1580647833.218,423472
1580647843.216,423473
1580647853.216,423474
1580647863.216,423474
1580647873.216,423476
1580647883.216,423476
1580647893.216,423476
1580647903.217,423479
1580647913.218,423480
1580647923.216,423480
1580647933.216,423481
1580647943.216,423481
1580647953.218,423482
1580647963.216,423484
1580647973.218,423484
1580647983.218,423484
1580647993.216,423485
1580648003.216,423486
1580648013.217,423486
1580648023.216,423488
1580648033.216,423488
1580648043.216,423488
1580648053.216,423488
1580648063.216,423489
1580648073.217,423489
1580648083.216,423489
1580648093.216,423489
1580648103.216,423489
1580648113.216,423490
1580648123.217,423491
1580648133.217,423491
1580648143.216,423492
1580648153.216,423492
1580648163.216,423493
1580648173.216,423493
1580648183.216,423494
1580648193.218,423494
1580648203.216,423495
1580648213.220,423496
1580648223.218,423496
1580648233.216,423498
1580648243.216,423500
1580648253.216,423500
1580648263.217,423500
1580648273.216,423500
1580648283.217,423501
1580648293.216,423505
1580648303.216,423506
1580648313.216,423506
1580648323.216,423507
1580648333.217,423507
1580648343.216,423507
1580648353.216,423508
1580648363.216,423508
1580648373.217,423510
1580648383.216,423510
1580648393.216,423511
1580648403.216,423512
1580648413.216,423512
1580648423.220,423512
1580648433.216,423512
1580648443.216,423515
1580648453.216,423515
1580648463.216,423516
1580648473.216,423516
1580648483.216,423518
1580648493.216,423518
1580648503.216,423518
1580648513.216,423519
1580648523.218,423522
1580648533.216,423522
1580648543.216,423522
1580648553.216,423522
1580648563.216,423522
1580648573.216,423522
1580648583.216,423523
1580648593.218,423524
1580648603.216,423524
1580648613.216,423525
1580648623.218,423528
1580648633.216,423528
1580648643.216,423528
1580648653.216,423529
1580648663.216,423530
1580648673.217,423530
1580648683.216,423530
1580648693.220,423530
1580648703.216,423530
1580648713.216,423530
1580648723.216,423530
1580648733.216,423530
1580648743.216,423530
1580648753.216,423530
1580648763.216,423530
1580648773.217,423532
1580648783.216,423532
1580648793.216,423532
1580648803.216,423534
1580648813.217,423534
1580648823.218,423534
1580648833.216,423535
1580648843.216,423535
1580648853.217,423535
1580648863.216,423537
1580648873.216,423537
1580648883.217,423537
1580648893.216,423538
1580648903.216,423538
1580648913.218,423538
1580648923.216,423538
1580648933.216,423538
1580648943.216,423538
1580648953.216,423540
1580648963.216,423541
1580648973.216,423541
1580648983.216,423542
1580648993.217,423543
1580649003.217,423543
1580649013.216,423545
1580649023.216,423547
1580649033.216,423547
1580649043.216,423548
1580649053.217,423550
1580649063.217,423550
1580649073.216,423551
1580649083.216,423553
1580649093.216,423553
1580649103.216,423553
1580649113.216,423554
1580649123.216,423554
1580649133.216,423556
1580649143.216,423557
1580649153.216,423557
1580649163.218,423558
1580649173.218,423558
1580649183.216,423558
1580649193.216,423560
1580649203.216,423561
1580649213.216,423561
1580649223.216,423561
1580649233.220,423562
1580649243.217,423562
1580649253.216,423562
1580649263.216,423563
1580649273.216,423563
1580649283.216,423564
1580649293.216,423564
1580649303.216,423564
1580649313.216,423564
1580649323.217,423564
1580649333.216,423565
1580649343.216,423565
1580649353.216,423565
1580649363.217,423565
1580649373.216,423565
1580649383.216,423565
1580649393.216,423565
1580649403.216,423565
1580649413.217,423565
1580649423.216,423565
1580649433.216,423565
1580649443.216,423565
1580649453.216,423566
1580649463.216,423566
1580649473.216,423566
1580649483.216,423567
1580649493.218,423568
1580649503.216,423568
1580649513.216,423568
1580649523.216,423569
1580649533.216,423569
1580649543.218,423569
1580649553.218,423569
1580649563.216,423569
1580649573.216,423569
1580649583.216,423569
1580649593.216,423569
1580649603.216,423569
1580649613.219,423570
1580649623.216,423570
1580649633.216,423570
1580649643.216,423570
1580649653.218,423572
1580649663.216,423573
1580649673.220,423574
1580649683.216,423575
1580649693.217,423575
1580649703.216,423576
1580649713.217,423578
1580649723.216,423578
1580649733.216,423578
1580649743.216,423578
1580649753.217,423578
1580649763.216,423578
1580649773.216,423578
1580649783.218,423580
1580649793.217,423580
1580649803.216,423581
1580649813.216,423581
1580649823.216,423581
1580649833.216,423582
1580649843.216,423583
1580649853.216,423583
1580649863.216,423583
1580649873.216,423584
1580649883.216,423584
1580649893.216,423584
1580649903.216,423585
1580649913.218,423585
1580649923.216,423585
1580649933.217,423585
1580649943.216,423585
1580649953.216,423586
1580649963.216,423587
1580649973.216,423588
1580649983.216,423588
1580649993.216,423588
1580650003.216,423588
1580650013.216,423589
1580650023.216,423590
1580650033.216,423590
1580650043.216,423590
1580650053.217,423590
1580650063.216,423590
1580650073.216,423590
1580650083.216,423590
1580650093.216,423590
1580650103.216,423592
1580650113.219,423592
1580650123.216,423592
1580650133.216,423592
1580650143.216,423593
1580650153.216,423593
1580650163.216,423593
1580650173.218,423593
1580650183.216,423594
1580650193.216,423594
1580650203.216,423595
1580650213.217,423595
1580650223.216,423597
1580650233.216,423597
1580650243.216,423597
1580650253.216,423598
1580650263.216,423598
1580650273.216,423599
1580650283.216,423599
1580650293.216,423600
1580650303.216,423600
1580650313.216,423600
1580650323.223,423601
1580650333.216,423602
1580650343.216,423604
1580650353.216,423604
1580650363.218,423604
1580650373.216,423604
1580650383.216,423606
1580650393.216,423606
1580650403.216,423606
1580650413.216,423606
1580650423.216,423606
1580650433.216,423606
1580650443.216,423607
1580650453.220,423608
1580650463.216,423609
1580650473.217,423609
1580650483.216,423609
1580650493.216,423609
1580650503.217,423611
1580650513.216,423611
1580650523.216,423611
1580650533.216,423611
1580650543.216,423611
1580650553.216,423611
1580650563.216,423612
1580650573.216,423612
1580650583.216,423613
1580650593.216,423613
1580650603.216,423614
1580650613.216,423614
1580650623.216,423615
1580650633.216,423615
1580650643.216,423616
1580650653.216,423616
1580650663.216,423617
1580650673.216,423617
1580650683.217,423617
1580650693.216,423617
1580650703.216,423618
1580650713.216,423618
1580650723.216,423618
1580650733.216,423618
1580650743.216,423620
1580650753.216,423620
1580650763.216,423620
1580650773.216,423620
1580650783.216,423621
1580650793.216,423621
1580650803.216,423622
1580650813.216,423623
1580650823.216,423623
1580650833.216,423623
1580650843.216,423623
1580650853.216,423624
1580650863.217,423625
1580650873.216,423626
1580650883.216,423628
1580650893.216,423628
1580650903.216,423628
1580650913.216,423628
1580650923.216,423629
1580650933.217,423630
1580650943.219,423630
1580650953.216,423630
1580650963.216,423630
1580650973.218,423632
1580650983.216,423632
1580650993.218,423632
1580651003.216,423632
1580651013.216,423632
1580651023.216,423634
1580651033.218,423634
1580651043.216,423634
1580651053.218,423635
1580651063.216,423635
1580651073.216,423636
1580651083.216,423636
1580651093.217,423636
1580651103.216,423636
1580651113.216,423637
1580651123.216,423637
1580651133.216,423639
1580651143.216,423639
1580651153.216,423639
1580651163.216,423640
1580651173.216,423642
1580651183.216,423642
1580651193.216,423642
1580651203.216,423643
1580651213.217,423644
1580651223.216,423645
1580651233.216,423646
1580651243.216,423646
1580651253.216,423648
1580651263.216,423648
1580651273.216,423649
1580651283.216,423650
1580651293.216,423650
1580651303.216,423650
1580651313.216,423650
1580651323.217,423650
1580651333.216,423650
1580651343.216,423650
1580651353.216,423650
1580651363.216,423652
1580651373.216,423652
1580651383.219,423655
1580651393.216,423656
1580651403.216,423656
1580651413.216,423656
1580651423.216,423658
1580651433.216,423658
1580651443.216,423658
1580651453.217,423658
1580651463.216,423658
1580651473.216,423658
1580651483.217,423658
1580651493.219,423658
1580651503.216,423658
1580651513.217,423658
1580651523.221,423659
1580651533.216,423659
1580651543.219,423660
1580651553.216,423660
1580651563.217,423660
1580651573.217,423660
1580651583.217,423661
1580651593.216,423661
1580651603.216,423662
1580651613.216,423663
1580651623.217,423663
1580651633.216,423664
1580651643.216,423664
1580651653.217,423665
1580651663.216,423666
1580651673.216,423666
1580651683.216,423666
1580651693.216,423666
1580651703.216,423667
1580651713.216,423667
1580651723.216,423667
1580651733.216,423668
1580651743.219,423669
1580651753.216,423669
1580651763.217,423669
1580651773.216,423670
1580651783.216,423670
1580651793.216,423670
1580651803.216,423670
1580651813.216,423670
1580651823.216,423672
1580651833.216,423672
1580651843.216,423673
1580651853.216,423673
1580651863.216,423673
1580651873.216,423674
1580651883.216,423674
1580651893.216,423674
1580651903.216,423676
1580651913.216,423676
1580651923.218,423677
1580651933.217,423679
1580651943.216,423680
1580651953.216,423680
1580651963.217,423682
1580651973.216,423682
1580651983.216,423682
1580651993.216,423682
1580652003.216,423683
1580652013.216,423683
1580652023.216,423684
1580652033.216,423686
1580652043.216,423687
1580652053.216,423687
1580652063.216,423687
1580652073.217,423688
1580652083.216,423688
1580652093.216,423689
1580652103.217,423689
1580652113.216,423689
1580652123.217,423689
1580652133.217,423689
1580652143.216,423689
1580652153.216,423689
1580652163.216,423690
1580652173.216,423690
1580652183.216,423691
1580652193.217,423691
1580652203.216,423691
1580652213.216,423691
1580652223.217,423691
1580652233.216,423691
1580652243.216,423691
1580652253.216,423691
1580652263.216,423691
1580652273.216,423692
1580652283.217,423694
1580652293.216,423696
1580652303.216,423697
1580652313.216,423698
1580652323.216,423698
1580652333.216,423698
1580652343.218,423699
1580652353.217,423699
1580652363.218,423700
1580652373.216,423700
1580652383.216,423702
1580652393.216,423702
1580652403.216,423702
1580652413.216,423702
1580652423.216,423702
1580652433.216,423702
1580652443.216,423702
1580652453.216,423703
1580652463.217,423703
1580652473.217,423703
1580652483.216,423703
1580652493.216,423703
1580652503.217,423703
1580652513.216,423706
1580652523.216,423706
1580652533.217,423706
1580652543.216,423707
1580652553.216,423708
1580652563.216,423708
1580652573.216,423708
1580652583.217,423710
1580652593.217,423712
1580652603.217,423712
1580652613.216,423712
1580652623.219,423712
1580652633.216,423712
1580652643.216,423712
1580652653.216,423712
1580652663.216,423713
1580652673.216,423713
1580652683.216,423713
1580652693.216,423713
1580652703.216,423715
1580652713.216,423716
1580652723.218,423716
1580652733.216,423717
1580652743.217,423717
1580652753.216,423718
1580652763.216,423718
1580652773.216,423718
1580652783.216,423718
1580652793.216,423718
1580652803.216,423719
1580652813.218,423719
1580652823.216,423720
1580652833.216,423720
1580652843.216,423720
1580652853.216,423720
1580652863.216,423720
1580652873.216,423722
1580652883.216,423723
1580652893.216,423723
1580652903.216,423724
1580652913.216,423724
1580652923.216,423725
1580652933.216,423725
1580652943.216,423725
1580652953.216,423725
1580652963.216,423725
1580652973.216,423725
1580652983.216,423725
1580652993.216,423725
1580653003.216,423726
1580653013.220,423726
1580653023.216,423726
1580653033.218,423727
1580653043.219,423728
1580653053.216,423728
1580653063.216,423730
1580653073.216,423730
1580653083.216,423732
1580653093.216,423732
1580653103.216,423732
1580653113.218,423733
1580653123.217,423734
1580653133.216,423734
1580653143.216,423734
1580653153.216,423734
1580653163.216,423735
1580653173.218,423736
1580653183.216,423737
1580653193.219,423737
1580653203.216,423738
1580653213.218,423739
1580653223.216,423739
1580653233.216,423740
1580653243.216,423740
1580653253.216,423741
1580653263.216,423742
1580653273.218,423742
1580653283.216,423743
1580653293.216,423743
1580653303.216,423743
1580653313.218,423743
1580653323.216,423744
1580653333.216,423745
1580653343.216,423748
1580653353.216,423748
1580653363.216,423748
1580653373.216,423750
1580653383.216,423752
1580653393.216,423752
1580653403.216,423752
1580653413.218,423753
1580653423.217,423754
1580653433.216,423754
1580653443.216,423754
1580653453.216,423754
1580653463.216,423754
1580653473.217,423754
1580653483.216,423754
1580653493.216,423755
1580653503.216,423756
1580653513.217,423756
1580653523.216,423758
1580653533.217,423758
1580653543.216,423758
1580653553.216,423759
1580653563.216,423760
1580653573.216,423760
1580653583.216,423762
1580653593.216,423762
1580653603.216,423763
1580653613.216,423764
1580653623.216,423764
1580653633.216,423764
1580653643.216,423764
1580653653.216,423765
1580653663.216,423765
1580653673.216,423766
1580653683.218,423766
1580653693.217,423766
1580653703.216,423768
1580653713.216,423770
1580653723.216,423770
1580653733.216,423772
1580653743.216,423772
1580653753.218,423773
1580653763.216,423773
1580653773.216,423774
1580653783.216,423775
1580653793.216,423777
1580653803.216,423777
1580653813.216,423778
1580653823.216,423779
1580653833.216,423780
1580653843.216,423781
1580653853.216,423781
1580653863.218,423782
1580653873.216,423782
1580653883.216,423782
1580653893.216,423784
1580653903.216,423786
1580653913.216,423788
1580653923.216,423788
1580653933.216,423788
1580653943.219,423789
1580653953.216,423789
1580653963.216,423790
1580653973.216,423790
1580653983.216,423792
1580653993.219,423792
1580654003.216,423792
1580654013.216,423792
1580654023.216,423793
1580654033.216,423794
1580654043.216,423794
1580654053.216,423794
1580654063.216,423794
1580654073.216,423794
1580654083.216,423794
1580654093.216,423794
1580654103.217,423794
1580654113.216,423794
1580654123.216,423796
1580654133.216,423797
1580654143.216,423797
1580654153.217,423797
1580654163.216,423798
1580654173.216,423798
1580654183.217,423799
1580654193.217,423800
1580654203.216,423802
1580654213.216,423803
1580654223.216,423803
1580654233.216,423803
1580654243.216,423803
1580654253.217,423803
1580654263.216,423804
1580654273.216,423805
1580654283.219,423806
1580654293.216,423807
1580654303.216,423808
1580654313.216,423808
1580654323.216,423808
1580654333.217,423810
1580654343.217,423810
1580654353.216,423811
1580654363.216,423812
1580654373.216,423812
1580654383.216,423812
1580654393.216,423814
1580654403.216,423816
1580654413.217,423817
1580654423.216,423819
1580654433.216,423819
1580654443.218,423821
1580654453.217,423821
1580654463.216,423822
1580654473.216,423824
1580654483.216,423824
1580654493.216,423825
1580654503.216,423826
1580654513.216,423826
1580654523.216,423826
1580654533.216,423827
1580654543.216,423827
1580654553.216,423828
1580654563.216,423828
1580654573.216,423828
1580654583.216,423829
1580654593.219,423829
1580654603.216,423829
1580654613.216,423830
1580654623.216,423830
1580654633.216,423830
1580654643.216,423830
1580654653.216,423830
1580654663.221,423832
1580654673.216,423832
1580654683.216,423832
1580654693.216,423833
1580654703.218,423834
1580654713.217,423834
1580654723.216,423835
1580654733.219,423835
1580654743.216,423835
1580654753.216,423836
1580654763.216,423837
