epoch,value
1579947404.404,0
1579947414.404,0
1579947424.404,0
1579947434.404,0
1579947444.404,0
1579947454.404,0
1579947464.404,0
1579947484.404,0
1579947494.404,0
1579947504.404,0
1579947514.404,0
1579947524.404,0
1579947534.404,0
1579947544.404,0
1579947554.404,0
1579947564.404,0
1579947574.404,0
1579947584.404,0
1579947594.404,0
1579947604.404,1
1579947614.404,1
1579947624.404,1
1579947634.404,1
1579947644.404,1
1579947654.404,1
1579947664.404,1
1579947674.404,1
1579947684.404,1
1579947694.404,1
1579947704.404,1
1579947714.404,1
1579947724.404,1
1579947734.404,1
1579947744.404,1
1579947754.405,1
1579947764.404,1
1579947774.404,2
1579947784.404,2
1579947794.404,2
1579947804.404,2
1579947814.404,2
1579947824.404,2
1579947834.404,2
1579947844.404,2
1579947854.404,2
1579947864.404,2
1579947874.404,2
1579947884.404,2
1579947894.404,2
1579947904.404,2
1579947914.404,2
1579947924.404,2
1579947934.404,2
1579947944.404,2
1579947954.404,2
1579947964.404,3
1579947974.404,3
1579947984.404,3
1579947994.404,3
1579948004.404,3
1579948014.404,3
1579948024.404,3
1579948034.404,3
1579948044.404,3
1579948054.404,3
1579948064.404,3
1579948074.404,3
1579948084.404,3
1579948094.404,3
1579948104.404,3
1579948114.404,3
1579948124.404,3
1579948134.404,3
1579948144.404,3
1579948154.404,3
1579948164.404,3
1579948174.404,3
1579948184.404,3
1579948194.404,3
1579948204.404,3
1579948214.404,3
1579948224.404,3
1579948234.409,3
1579948244.404,3
1579948254.404,3
1579948264.404,3
1579948274.404,3
1579948284.404,3
1579948294.404,3
1579948304.404,3
1579948314.404,4
1579948324.404,4
1579948334.404,4
1579948344.404,4
1579948354.404,4
1579948364.404,4
1579948374.404,4
1579948384.406,4
1579948394.404,4
1579948404.404,4
1579948414.404,4
1579948424.404,4
1579948434.404,4
1579948444.404,4
1579948454.404,4
1579948464.404,4
1579948474.404,4
1579948484.404,4
1579948494.404,4
1579948504.404,4
1579948514.404,4
1579948524.404,5
1579948534.404,5
1579948544.404,5
1579948554.404,5
1579948564.404,5
1579948574.404,5
1579948584.404,5
1579948594.404,5
1579948604.404,5
1579948614.404,5
1579948624.404,5
1579948634.404,5
1579948644.404,5
1579948654.404,5
1579948664.404,5
1579948674.404,5
1579948684.404,5
1579948694.404,5
1579948704.404,5
1579948714.404,5
1579948724.404,5
1579948734.404,5
1579948744.404,5
1579948754.404,5
1579948764.404,6
1579948784.404,6
1579948794.404,6
1579948804.404,6
1579948814.404,6
1579948824.404,6
1579948834.404,6
1579948844.404,6
1579948854.405,6
1579948864.404,6
1579948874.404,6
1579948884.404,6
1579948894.404,6
1579948904.404,6
1579948914.404,6
1579948924.404,6
1579948934.404,6
1579948944.404,6
1579948954.404,6
1579948964.409,6
1579948974.404,6
1579948984.405,6
1579948994.404,6
1579949004.404,6
1579949014.404,7
1579949024.404,7
1579949034.404,7
1579949044.404,7
1579949054.404,7
1579949064.404,7
1579949074.404,7
1579949084.404,7
1579949094.404,7
1579949104.404,7
1579949114.404,7
1579949124.404,7
1579949134.404,7
1579949144.404,7
1579949154.404,7
1579949164.404,7
1579949174.404,7
1579949184.404,7
1579949194.404,8
1579949204.404,8
1579949214.404,8
1579949224.404,8
1579949234.404,8
1579949244.404,8
1579949254.404,8
1579949264.404,8
1579949274.404,8
1579949284.404,8
1579949294.404,8
1579949304.404,8
1579949314.404,8
1579949324.404,8
1579949334.404,8
1579949344.404,8
1579949354.404,8
1579949364.404,8
1579949374.404,8
1579949384.404,8
1579949394.404,8
1579949404.404,8
1579949414.404,8
1579949424.404,8
1579949434.404,8
1579949444.404,8
1579949454.404,8
1579949464.404,8
1579949474.404,9
1579949484.404,9
1579949494.404,9
1579949504.404,9
1579949514.404,9
1579949524.404,9
1579949534.404,9
1579949544.404,9
1579949554.404,9
1579949574.404,9
1579949584.404,9
1579949594.404,9
1579949604.404,9
1579949614.404,9
1579949624.404,9
1579949634.404,9
1579949644.404,9
1579949654.404,9
1579949664.404,9
1579949674.404,9
1579949684.404,9
1579949694.404,9
1579949704.404,9
1579949714.404,9
1579949724.404,9
1579949734.404,9
1579949744.404,9
1579949754.404,10
1579949764.404,10
1579949774.404,10
1579949784.404,10
1579949794.404,10
1579949804.404,10
1579949814.404,10
1579949824.404,10
1579949834.404,10
1579949844.404,10
1579949854.404,10
1579949864.404,10
1579949874.404,10
1579949884.404,10
1579949894.404,10
1579949904.404,10
1579949914.404,10
1579949924.404,10
1579949934.404,10
1579949944.404,10
1579949954.404,10
1579949964.404,10
1579949974.404,10
1579949984.405,10
1579949994.404,10
1579950004.404,10
1579950014.404,11
