epoch,value
1580242462.514,12392
1580242472.491,12392
1580242482.492,12392
1580242492.491,12392
1580242502.491,12392
1580242512.491,12392
1580242522.492,12392
1580242532.491,12392
1580242542.491,12392
1580242552.492,12392
1580242562.491,12392
1580242572.494,12392
1580242582.491,12392
1580242592.493,12392
1580242602.491,12392
1580242612.491,12392
1580242622.491,12392
1580242632.491,12392
1580242642.492,12392
1580242652.491,12392
1580242662.491,12392
1580242672.494,12392
1580242682.491,12392
1580242692.491,12392
1580242702.491,12392
1580242712.491,12392
1580242722.492,12392
1580242732.495,12392
1580242742.491,12392
1580242752.491,12392
1580242762.491,12392
1580242772.491,12392
1580242782.493,12392
1580242792.492,12392
1580242802.492,12392
1580242812.494,12392
1580242822.492,12392
1580242832.492,12392
1580242842.491,12392
1580242852.491,12392
1580242862.491,12392
1580242872.491,12392
1580242882.491,12393
1580242892.492,12393
1580242902.491,12393
1580242912.491,12393
1580242922.491,12393
1580242932.491,12393
1580242942.491,12393
1580242952.492,12393
1580242962.492,12393
1580242972.492,12393
1580242982.491,12393
1580242992.491,12393
1580243002.491,12393
1580243012.493,12393
1580243022.492,12393
1580243032.491,12393
1580243042.491,12393
1580243052.491,12393
1580243062.491,12393
1580243072.493,12393
1580243082.491,12393
1580243092.491,12393
1580243102.491,12393
1580243112.491,12393
1580243122.491,12393
1580243132.494,12393
1580243142.492,12393
1580243152.494,12393
1580243162.491,12393
1580243172.491,12393
1580243182.492,12393
1580243192.491,12393
1580243202.492,12393
1580243212.491,12393
1580243222.493,12393
1580243232.491,12393
1580243242.493,12393
1580243252.491,12393
1580243262.493,12393
1580243272.491,12393
1580243282.491,12393
1580243292.493,12393
1580243302.491,12394
1580243312.494,12394
1580243322.491,12394
1580243332.491,12394
1580243342.491,12394
1580243352.492,12394
1580243362.491,12394
1580243372.491,12394
1580243382.496,12394
1580243392.491,12394
1580243402.491,12394
1580243412.493,12395
1580243422.493,12395
1580243432.491,12395
1580243442.491,12395
1580243452.491,12395
1580243462.493,12395
1580243472.491,12395
1580243482.491,12395
1580243492.491,12395
1580243502.491,12395
1580243512.491,12395
1580243522.491,12395
1580243532.491,12396
1580243542.491,12396
1580243552.492,12396
1580243562.491,12396
1580243572.491,12396
1580243582.491,12396
1580243592.491,12396
1580243602.491,12396
1580243612.491,12397
1580243622.491,12397
1580243632.491,12397
1580243642.491,12397
1580243652.492,12397
1580243662.492,12397
1580243672.491,12397
1580243682.491,12397
1580243692.492,12397
1580243702.492,12397
1580243712.491,12397
1580243722.492,12397
1580243732.494,12397
1580243742.494,12397
1580243752.492,12397
1580243762.492,12397
1580243772.491,12397
1580243782.491,12397
1580243792.492,12397
1580243802.491,12397
1580243812.491,12397
1580243822.492,12397
1580243832.494,12397
1580243842.491,12397
1580243852.491,12397
1580243862.491,12397
1580243872.491,12397
1580243882.496,12397
1580243892.493,12397
1580243902.491,12397
1580243912.492,12397
1580243922.491,12397
1580243932.493,12397
1580243942.491,12397
1580243952.492,12397
1580243962.492,12397
1580243972.492,12397
1580243982.493,12397
1580243992.491,12397
1580244002.491,12397
1580244012.491,12397
1580244022.491,12397
1580244032.491,12397
1580244042.492,12397
1580244052.491,12397
1580244062.491,12397
1580244072.491,12397
1580244082.491,12397
1580244092.491,12397
1580244102.491,12397
1580244112.491,12397
1580244122.491,12397
1580244132.492,12397
1580244142.491,12397
1580244152.491,12397
1580244162.491,12397
1580244172.491,12397
1580244182.493,12397
1580244192.492,12398
1580244202.493,12398
1580244212.491,12398
1580244222.491,12398
1580244232.493,12398
1580244242.491,12398
1580244252.491,12398
1580244262.492,12398
1580244272.492,12398
1580244282.497,12398
1580244292.491,12398
1580244302.491,12398
1580244312.492,12398
1580244322.493,12398
1580244332.493,12398
1580244342.491,12398
1580244352.491,12398
1580244362.493,12398
1580244372.492,12398
1580244382.492,12398
1580244392.491,12398
1580244402.491,12398
1580244412.492,12398
1580244422.491,12398
1580244432.491,12399
1580244442.491,12399
1580244452.491,12399
1580244462.493,12399
1580244472.492,12399
1580244482.491,12399
1580244492.491,12399
1580244502.492,12399
1580244512.493,12399
1580244522.491,12399
1580244532.491,12399
1580244542.492,12399
1580244552.493,12399
1580244562.494,12399
1580244572.493,12399
1580244582.491,12399
1580244592.491,12400
1580244602.491,12400
1580244612.492,12400
1580244622.491,12401
1580244632.491,12401
1580244642.493,12402
1580244652.491,12402
1580244662.491,12404
1580244672.491,12404
1580244682.491,12404
1580244692.491,12405
1580244702.491,12405
1580244712.492,12405
1580244722.492,12405
1580244732.491,12405
1580244742.491,12405
1580244752.491,12406
1580244762.492,12406
1580244772.491,12406
1580244782.491,12407
1580244792.494,12407
1580244802.492,12407
1580244812.491,12407
1580244822.494,12407
1580244832.492,12407
1580244842.491,12407
1580244852.493,12407
1580244862.493,12407
1580244872.491,12407
1580244882.491,12407
1580244892.492,12407
1580244902.491,12407
1580244912.492,12407
1580244922.492,12407
1580244932.491,12407
1580244942.491,12407
1580244952.492,12407
1580244962.494,12407
1580244972.492,12407
1580244982.491,12407
1580244992.491,12407
1580245002.491,12407
1580245012.491,12407
1580245022.491,12407
1580245032.491,12408
1580245042.492,12409
1580245052.492,12410
1580245062.491,12410
1580245072.492,12410
1580245082.494,12410
1580245092.493,12410
1580245102.492,12410
1580245112.493,12410
1580245122.491,12410
1580245132.491,12410
1580245142.491,12410
1580245152.491,12410
1580245162.491,12410
1580245172.491,12410
1580245182.492,12410
1580245192.491,12410
1580245202.491,12410
1580245212.491,12410
1580245222.491,12410
