epoch,value
1579797903.933,0
1579797913.933,0
1579797923.933,0
1579797933.933,0
1579797943.933,2
1579797953.933,5
1579797963.933,5
1579797973.933,6
1579797983.933,7
1579797993.933,8
1579798003.935,10
1579798013.933,15
1579798023.933,20
1579798033.933,23
1579798043.933,24
1579798053.933,25
1579798063.933,25
1579798073.933,27
1579798083.933,27
1579798093.933,28
1579798103.933,30
1579798113.933,30
1579798123.933,31
1579798133.933,32
1579798143.933,45
1579798153.933,46
1579798163.941,52
1579798173.933,63
1579798183.933,64
1579798193.933,64
1579798203.933,66
1579798213.933,68
1579798223.934,68
1579798233.933,68
1579798243.933,68
1579798253.933,68
1579798263.933,68
1579798273.933,68
1579798283.933,68
1579798293.933,68
1579798303.933,68
1579798313.933,68
1579798323.933,68
1579798333.933,68
1579798343.933,68
1579798353.933,69
1579798363.933,69
1579798373.933,69
1579798383.933,69
1579798393.933,69
1579798403.933,69
1579798413.933,69
1579798423.933,69
1579798433.933,69
1579798443.933,70
1579798453.933,70
1579798463.933,70
1579798473.933,70
1579798483.933,70
1579798493.937,70
1579798503.933,70
1579798513.933,70
1579798523.933,70
1579798533.933,70
1579798543.933,70
1579798553.933,70
1579798563.933,70
1579798573.933,70
1579798583.933,70
1579798593.933,70
1579798603.933,70
1579798613.933,70
1579798623.933,70
1579798633.933,70
1579798643.933,70
1579798653.933,70
1579798663.933,70
1579798673.933,71
1579798683.933,71
1579798693.933,71
1579798703.933,71
1579798713.933,71
1579798723.933,71
1579798733.933,71
1579798743.933,71
1579798753.933,71
1579798763.933,71
1579798773.933,71
1579798783.933,71
1579798793.933,71
1579798803.933,71
1579798813.933,71
1579798823.933,71
1579798833.941,71
1579798843.933,71
1579798853.939,71
1579798863.933,71
1579798873.933,71
1579798883.933,71
1579798893.933,71
1579798903.933,71
1579798913.933,72
1579798923.933,72
1579798933.933,72
1579798943.933,72
1579798953.933,72
1579798963.933,72
1579798973.933,72
1579798983.933,72
1579798993.933,72
1579799003.933,72
1579799013.933,72
1579799023.933,73
1579799033.933,73
1579799043.933,73
1579799053.933,73
1579799063.933,73
1579799073.933,73
1579799083.933,73
1579799093.933,73
1579799103.933,73
1579799113.933,73
1579799123.933,73
1579799133.933,73
1579799143.933,73
1579799153.933,73
1579799163.933,73
1579799173.933,73
1579799183.933,73
1579799193.933,74
1579799203.933,74
1579799213.933,74
1579799223.933,74
1579799233.933,74
1579799243.933,74
1579799253.933,74
1579799263.933,74
1579799273.933,74
1579799283.933,74
1579799293.933,74
1579799303.933,74
1579799313.933,74
1579799323.933,74
1579799333.933,74
1579799343.933,74
1579799353.933,74
1579799363.934,74
1579799373.933,74
1579799383.933,74
1579799393.933,74
1579799403.933,75
1579799413.933,75
1579799423.933,75
1579799433.933,75
