epoch,value
1579933526.880,0
1579933536.880,0
1579933546.880,0
1579933556.880,0
1579933566.880,0
1579933576.880,0
1579933586.880,0
1579933596.880,1
1579933606.880,2
1579933616.880,2
1579933626.880,3
1579933636.880,3
1579933646.880,4
1579933656.880,4
1579933666.880,4
1579933676.880,5
1579933686.880,5
1579933696.880,6
1579933706.880,7
1579933716.880,8
1579933726.880,9
1579933736.880,10
1579933746.880,11
1579933756.881,12
1579933766.880,12
1579933776.880,12
1579933786.880,12
1579933796.880,12
1579933806.880,13
1579933816.880,13
1579933826.880,13
1579933836.880,14
1579933846.889,14
1579933856.880,14
1579933866.880,15
1579933876.880,15
1579933886.880,15
1579933896.880,16
1579933906.880,16
1579933916.880,17
1579933926.880,17
1579933936.880,19
1579933946.880,19
1579933956.880,20
1579933966.880,20
1579933976.880,21
1579933986.880,21
1579933996.880,23
1579934006.880,24
1579934016.880,26
1579934026.880,26
1579934036.880,27
1579934046.880,27
1579934056.880,27
1579934066.880,29
1579934076.880,30
1579934086.880,30
1579934096.880,31
1579934106.880,31
1579934116.880,32
1579934126.880,33
1579934136.880,33
1579934146.880,34
1579934156.880,35
1579934166.880,35
1579934176.880,35
1579934186.880,35
1579934196.880,35
1579934206.880,36
1579934216.880,36
1579934226.880,36
1579934236.880,36
1579934246.880,37
1579934256.880,39
1579934266.880,39
1579934276.880,39
1579934286.880,39
1579934296.880,40
1579934306.880,40
1579934316.880,40
1579934326.880,41
1579934336.880,42
1579934346.880,43
1579934356.880,43
1579934366.880,43
1579934376.880,44
1579934386.880,44
1579934396.880,44
1579934406.880,44
1579934416.880,44
1579934426.880,44
1579934436.880,44
1579934446.880,44
1579934456.880,44
1579934466.880,44
1579934476.880,44
1579934486.880,44
1579934496.880,44
1579934506.880,44
1579934516.880,44
1579934526.880,44
1579934536.880,44
1579934546.880,44
1579934556.880,44
1579934566.880,44
1579934576.880,44
1579934586.880,44
1579934596.880,44
1579934606.880,44
1579934616.880,44
1579934626.880,44
1579934636.880,44
1579934646.880,44
1579934656.880,44
1579934666.880,44
1579934676.880,44
1579934686.880,44
1579934696.880,44
1579934706.880,44
1579934716.880,44
1579934726.880,44
1579934736.880,44
1579934746.880,44
1579934756.880,44
1579934766.880,44
1579934776.880,44
1579934786.880,44
1579934796.880,44
1579934806.880,44
1579934816.880,44
1579934826.880,44
1579934836.880,44
1579934846.880,44
1579934856.880,44
1579934866.880,44
1579934876.880,44
1579934886.880,44
1579934896.880,44
1579934906.880,44
1579934916.880,44
1579934926.880,44
1579934936.880,44
1579934946.880,44
1579934956.880,44
1579934966.880,44
1579934976.880,44
1579934986.880,44
1579934996.880,44
1579935006.880,44
1579935016.880,45
1579935026.880,45
1579935036.880,45
1579935046.880,45
1579935056.880,45
1579935066.880,45
1579935076.880,45
1579935086.880,45
1579935096.880,45
1579935106.880,45
1579935116.880,45
1579935126.880,45
1579935136.880,45
1579935146.880,45
1579935156.880,45
1579935166.880,45
1579935176.880,45
1579935186.880,45
1579935196.880,45
1579935206.880,45
1579935216.880,45
1579935226.880,45
1579935236.880,45
1579935246.880,45
1579935256.880,45
1579935266.880,45
1579935276.880,45
1579935286.880,45
1579935296.880,45
1579935306.880,45
1579935316.880,45
1579935326.880,45
1579935336.880,45
1579935346.880,45
1579935356.880,45
1579935366.880,45
1579935376.880,45
1579935386.880,45
1579935396.880,45
1579935406.880,45
1579935416.880,45
1579935426.880,45
1579935436.880,45
1579935446.880,45
1579935456.880,45
1579935466.880,45
1579935476.880,45
1579935486.880,45
1579935496.880,45
1579935506.880,45
1579935516.880,45
1579935526.885,45
1579935536.880,45
1579935546.880,45
1579935556.880,45
1579935566.880,45
1579935576.880,45
1579935586.881,45
1579935596.880,45
1579935606.880,45
1579935616.880,45
1579935636.880,45
1579935646.880,45
1579935656.880,45
1579935666.880,45
1579935676.880,45
1579935686.880,45
1579935696.880,45
1579935706.880,45
1579935716.880,45
1579935726.880,45
1579935736.880,45
1579935746.880,45
1579935756.880,45
1579935766.880,45
1579935776.880,45
1579935786.880,45
1579935796.880,45
1579935806.880,45
1579935816.880,45
1579935826.880,45
1579935836.880,45
1579935846.880,46
1579935856.880,46
1579935866.880,46
1579935876.880,46
1579935886.880,46
1579935896.880,46
1579935906.880,46
1579935916.880,46
1579935926.880,46
1579935936.880,46
1579935946.880,46
1579935956.880,46
1579935966.880,46
1579935976.880,46
1579935986.880,46
1579935996.880,46
1579936006.880,46
1579936016.880,46
1579936026.880,46
1579936036.880,46
1579936046.880,46
1579936056.880,46
1579936066.880,46
1579936076.880,46
1579936086.880,46
1579936096.880,46
1579936106.880,46
1579936116.880,46
1579936126.880,46
1579936136.880,46
1579936146.880,46
1579936156.880,46
1579936166.880,46
1579936176.880,46
1579936186.880,46
1579936196.880,46
1579936206.880,46
1579936216.880,46
1579936226.880,46
1579936236.880,46
1579936246.880,46
1579936256.880,46
