epoch,value
1579806846.572,0
1579806856.572,0
1579806866.572,2
1579806876.572,8
1579806886.572,11
1579806896.572,15
1579806906.572,24
1579806916.572,29
1579806926.572,32
1579806936.572,35
1579806946.572,46
1579806956.572,48
1579806966.572,55
1579806976.572,62
1579806986.572,65
1579806996.572,69
1579807006.572,76
1579807016.572,80
1579807026.572,87
1579807036.572,95
1579807046.572,102
1579807056.572,109
1579807066.572,114
1579807076.572,123
1579807086.576,131
1579807096.572,148
1579807106.572,163
1579807116.572,181
1579807126.572,192
1579807136.572,201
1579807146.572,211
1579807156.572,219
1579807166.572,224
1579807176.574,224
1579807186.572,224
1579807206.572,224
1579807216.572,224
1579807226.572,224
1579807236.572,224
1579807246.572,225
1579807256.572,225
1579807266.572,225
1579807276.572,225
1579807286.572,225
1579807296.572,225
1579807306.572,225
1579807316.572,225
1579807326.572,225
1579807336.572,225
1579807346.576,225
1579807356.572,225
1579807366.572,225
1579807376.572,225
1579807386.572,225
1579807396.572,225
1579807406.572,225
1579807416.572,225
1579807426.572,225
1579807436.572,225
1579807446.576,226
1579807456.572,226
1579807466.572,226
1579807476.572,226
1579807486.572,226
1579807496.572,226
1579807506.572,226
1579807516.572,226
1579807526.572,226
1579807536.572,226
1579807546.572,226
1579807556.572,226
1579807566.572,226
1579807576.572,226
1579807586.572,226
1579807596.574,226
1579807606.572,226
1579807616.572,226
1579807626.572,226
1579807636.572,226
1579807646.572,226
1579807656.572,226
1579807666.572,226
1579807676.572,227
1579807686.572,227
1579807696.572,227
1579807706.572,227
1579807716.572,227
1579807726.572,227
1579807736.572,227
1579807746.572,227
1579807756.572,227
1579807766.572,227
1579807776.572,227
1579807786.573,227
1579807796.572,227
1579807806.572,227
1579807816.572,227
1579807826.572,227
1579807836.572,227
1579807846.572,227
1579807856.572,227
1579807876.572,227
1579807886.572,227
1579807896.572,227
1579807906.572,227
1579807916.572,227
1579807926.572,227
1579807936.572,227
1579807946.572,227
1579807956.572,227
1579807966.572,227
1579807976.572,227
1579807986.572,228
1579807996.572,228
1579808006.572,228
1579808016.572,228
1579808026.572,228
1579808036.572,228
1579808046.572,228
1579808056.572,228
1579808066.572,228
1579808076.572,228
1579808086.572,229
1579808096.572,229
1579808106.572,229
1579808116.572,229
1579808126.572,229
1579808136.572,229
1579808146.572,229
1579808156.572,229
1579808166.572,229
1579808176.572,229
1579808186.572,229
1579808196.572,229
1579808206.572,229
1579808216.572,229
1579808226.572,229
1579808236.572,230
1579808246.572,230
1579808256.572,230
1579808266.572,230
1579808276.572,230
1579808286.572,230
1579808296.572,230
1579808306.572,230
1579808316.572,230
1579808326.572,230
1579808336.572,230
1579808346.572,230
1579808356.572,230
1579808366.572,231
