epoch,value
1580646632.961,0
1580646652.961,0
1580646662.961,0
1580646672.961,0
1580646682.961,0
1580646692.961,0
1580646712.961,0
1580646722.961,0
1580646732.961,0
1580646742.961,0
1580646752.961,0
1580646762.961,1
1580646772.961,1
1580646782.961,1
1580646792.961,1
1580646802.961,1
1580646812.961,1
1580646822.961,1
1580646832.961,1
1580646852.961,1
1580646862.961,1
1580646872.961,1
1580646882.961,1
1580646892.961,1
1580646902.961,1
1580646912.961,1
1580646922.961,1
1580646932.961,1
1580646942.961,1
1580646952.961,1
1580646962.961,1
1580646972.963,1
1580646982.961,1
1580646992.961,1
1580647002.961,1
1580647012.961,2
1580647022.961,2
1580647032.961,2
1580647042.961,2
1580647052.961,2
1580647062.961,2
1580647072.961,2
1580647082.961,2
1580647092.961,2
1580647102.961,2
1580647112.961,2
1580647122.961,2
1580647132.961,2
1580647142.961,2
1580647152.961,2
1580647162.961,2
1580647172.961,2
1580647182.961,3
1580647192.961,3
1580647202.961,3
1580647212.961,3
1580647222.961,3
1580647232.961,3
1580647242.961,3
1580647252.961,3
1580647262.961,3
1580647272.961,3
1580647282.961,3
1580647292.961,3
1580647302.961,3
1580647312.961,3
1580647322.961,3
1580647332.962,3
1580647342.961,3
1580647352.961,3
1580647362.961,3
1580647372.961,3
1580647382.961,3
1580647392.961,3
1580647402.961,3
1580647412.961,3
1580647422.961,3
1580647432.961,3
1580647442.961,3
1580647452.961,3
1580647462.961,3
1580647472.961,4
1580647482.961,4
1580647492.961,4
1580647502.961,4
1580647512.961,4
1580647522.961,4
1580647532.961,4
1580647542.961,4
1580647552.961,4
1580647562.961,4
1580647572.961,4
1580647582.961,4
1580647592.964,4
1580647602.961,4
1580647612.961,4
1580647622.961,4
1580647632.961,4
1580647642.961,4
1580647652.961,4
1580647662.961,4
1580647672.961,4
1580647682.961,4
1580647692.961,4
1580647702.961,4
1580647712.961,5
1580647722.961,5
1580647732.961,5
1580647742.961,5
1580647752.961,5
1580647762.961,5
1580647772.961,5
1580647782.961,5
1580647802.961,5
1580647812.961,5
1580647822.961,5
1580647832.961,5
1580647842.961,5
1580647852.961,5
1580647862.961,5
1580647872.961,5
1580647882.961,5
1580647892.961,5
1580647902.961,5
1580647912.961,5
1580647922.961,5
1580647932.961,5
1580647942.961,5
1580647952.961,5
1580647962.961,5
1580647972.961,5
1580647982.961,6
1580647992.961,6
1580648002.961,6
1580648012.961,6
1580648022.961,6
1580648032.961,6
1580648042.961,6
1580648052.961,6
1580648062.961,6
1580648072.961,6
1580648082.961,6
1580648092.961,6
1580648102.961,6
1580648112.961,6
1580648122.961,6
1580648132.961,6
1580648142.961,6
1580648152.961,6
1580648162.961,6
1580648172.961,6
1580648182.961,6
1580648192.961,6
1580648202.961,6
1580648212.961,6
1580648222.961,6
1580648232.961,7
1580648242.961,7
1580648252.961,7
1580648262.961,7
1580648272.961,7
1580648282.961,7
1580648292.961,7
1580648302.961,7
1580648312.961,7
1580648322.961,7
1580648332.961,7
1580648342.961,7
1580648352.961,7
1580648362.961,7
1580648372.961,7
1580648382.961,7
1580648392.961,7
1580648402.961,7
1580648412.961,7
1580648422.961,7
1580648432.961,7
1580648442.961,7
1580648452.961,7
1580648462.961,7
1580648472.961,7
1580648492.961,7
1580648502.961,7
1580648512.961,7
1580648522.961,7
1580648532.961,7
1580648542.961,7
1580648552.961,8
1580648562.961,8
1580648572.961,8
1580648582.961,8
1580648602.961,8
1580648612.961,8
1580648622.961,8
1580648632.961,8
1580648642.961,8
1580648652.961,8
1580648662.961,8
1580648672.961,8
1580648682.961,9
1580648692.961,9
1580648702.961,9
1580648712.961,9
1580648722.961,9
1580648732.961,9
1580648742.961,9
1580648752.961,9
1580648762.961,9
1580648772.961,9
1580648782.961,9
1580648792.961,9
1580648802.961,9
1580648812.961,9
1580648822.961,9
1580648832.961,9
1580648852.961,9
1580648862.961,9
1580648872.961,9
1580648892.961,9
1580648902.961,9
1580648912.961,10
1580648922.961,10
1580648932.961,10
1580648942.961,10
1580648952.961,10
1580648962.961,10
1580648972.961,10
1580648982.961,10
1580648992.961,10
1580649002.961,11
1580649012.961,11
1580649022.961,11
1580649032.961,11
1580649042.961,11
1580649052.961,11
1580649062.961,11
1580649072.961,11
1580649082.961,11
1580649092.961,11
1580649102.961,11
1580649112.961,11
1580649122.961,11
1580649132.961,11
1580649142.961,12
1580649152.961,12
1580649162.961,12
1580649172.961,12
1580649182.961,12
1580649192.961,12
1580649202.961,12
1580649212.961,12
1580649222.961,12
1580649232.961,12
1580649242.961,12
1580649252.961,12
1580649262.961,13
1580649272.961,13
1580649282.961,13
1580649292.961,13
1580649302.961,13
1580649312.961,13
1580649322.961,13
1580649332.961,13
1580649342.961,13
1580649352.961,13
1580649362.961,13
1580649372.961,13
1580649382.961,13
1580649392.961,13
1580649402.961,13
1580649412.961,13
1580649422.961,13
1580649432.961,13
1580649442.961,14
1580649452.961,14
1580649462.961,14
1580649472.961,14
1580649482.961,14
1580649492.961,14
1580649502.961,14
1580649512.961,14
1580649522.961,14
1580649532.961,14
1580649542.961,14
1580649552.961,14
1580649562.961,14
1580649572.961,14
1580649582.961,14
1580649592.961,14
1580649602.961,14
1580649612.961,15
1580649622.961,15
1580649632.961,15
1580649642.961,15
1580649652.961,15
1580649662.961,15
1580649672.961,15
1580649682.961,15
1580649692.961,15
1580649702.961,15
1580649712.961,15
1580649722.961,16
1580649732.961,16
1580649742.961,16
1580649752.961,16
1580649762.961,16
1580649772.961,16
1580649782.961,16
1580649802.961,16
1580649812.961,16
1580649822.961,16
1580649832.961,16
1580649842.961,17
1580649852.961,17
1580649862.961,17
1580649872.961,17
1580649882.961,17
1580649892.961,17
1580649902.961,17
1580649912.961,17
1580649922.961,17
1580649932.961,17
1580649942.961,17
1580649952.961,17
1580649962.961,17
1580649972.961,17
1580649982.961,17
1580649992.961,17
1580650002.961,17
1580650012.961,18
1580650022.961,18
1580650032.961,18
1580650042.961,18
1580650052.961,18
1580650062.961,18
1580650072.961,18
1580650082.961,18
1580650092.961,18
1580650102.961,18
1580650112.961,18
1580650122.961,18
1580650132.961,18
1580650142.961,18
1580650152.961,18
1580650162.961,19
1580650172.961,19
1580650182.961,19
1580650192.961,19
1580650202.961,19
1580650212.961,19
1580650222.961,19
1580650232.961,19
1580650242.961,19
1580650252.961,19
1580650262.961,19
1580650272.961,19
1580650282.961,20
1580650292.961,20
1580650302.961,20
1580650312.961,20
1580650322.961,20
1580650332.961,20
1580650342.961,20
1580650352.961,21
1580650362.961,21
1580650372.961,21
1580650382.961,21
1580650392.961,21
1580650402.961,21
1580650412.961,21
1580650422.961,21
1580650432.961,21
1580650442.961,21
1580650452.961,22
1580650462.961,22
1580650472.961,22
1580650482.961,22
1580650492.961,22
1580650502.961,22
1580650512.961,22
1580650522.961,22
1580650532.961,22
1580650542.961,22
1580650552.961,22
1580650562.961,22
1580650572.961,23
1580650582.961,23
1580650592.961,23
1580650602.961,23
1580650612.961,23
1580650622.961,23
1580650632.961,23
1580650642.961,23
1580650652.961,24
1580650662.961,24
1580650672.961,24
1580650682.961,24
1580650692.961,24
1580650702.961,24
1580650722.961,24
1580650732.961,24
1580650742.961,24
1580650752.961,25
1580650762.961,25
1580650772.961,25
1580650782.961,25
1580650792.961,25
1580650802.961,26
1580650812.961,26
1580650822.961,26
1580650832.961,26
1580650842.961,26
1580650852.961,26
1580650862.961,26
1580650872.961,26
1580650882.964,26
1580650892.961,26
1580650902.961,26
1580650912.961,26
1580650922.961,26
1580650932.961,26
1580650942.961,26
1580650952.961,26
1580650962.961,26
1580650972.961,26
1580650982.961,27
1580650992.961,27
1580651002.961,27
1580651012.961,27
1580651022.961,27
1580651032.961,27
1580651042.961,27
1580651052.961,27
1580651062.961,27
1580651072.961,27
1580651082.961,27
1580651092.961,28
1580651102.961,28
1580651112.961,28
1580651122.961,28
1580651132.961,28
1580651142.961,28
1580651152.961,28
1580651162.961,28
1580651172.961,28
1580651182.961,28
1580651192.961,28
1580651202.961,28
1580651212.961,28
1580651222.961,28
1580651232.961,28
1580651242.961,28
1580651252.961,28
1580651262.961,28
1580651272.961,29
1580651292.961,29
1580651302.961,29
1580651312.961,29
1580651322.961,29
1580651332.961,29
1580651342.961,29
1580651352.961,29
1580651362.961,29
1580651372.961,29
1580651382.961,29
1580651392.961,29
1580651402.961,29
1580651412.961,30
1580651422.961,30
1580651432.961,30
1580651442.961,30
1580651452.961,30
1580651462.961,30
1580651472.961,30
1580651482.961,30
1580651492.961,30
1580651502.961,31
1580651512.961,31
1580651522.961,31
1580651532.961,31
1580651542.961,31
1580651552.961,31
1580651562.961,31
1580651572.961,31
1580651582.961,31
1580651592.961,31
1580651602.961,31
1580651612.961,31
1580651622.961,31
1580651632.961,31
1580651642.961,32
1580651652.961,32
1580651662.961,32
1580651672.961,32
1580651682.961,32
1580651692.961,32
1580651702.961,32
1580651712.961,33
1580651722.961,33
1580651732.961,33
1580651742.961,33
1580651752.961,33
1580651762.961,33
1580651772.961,33
1580651782.961,33
1580651792.961,33
1580651802.961,33
1580651812.961,33
1580651822.961,33
1580651832.961,33
1580651842.961,34
1580651852.961,34
1580651862.961,34
1580651872.961,34
1580651882.961,34
1580651892.961,34
1580651902.961,34
1580651912.961,34
1580651922.961,34
1580651932.961,34
1580651942.961,34
1580651952.961,34
1580651962.961,35
1580651972.961,35
1580651982.961,35
1580651992.961,35
1580652002.961,35
1580652012.961,35
1580652022.961,35
1580652032.961,35
1580652042.961,35
1580652052.961,35
1580652062.961,35
1580652072.961,35
1580652082.961,35
1580652092.961,36
1580652102.961,36
1580652112.961,36
1580652122.961,36
1580652132.961,36
1580652142.961,36
1580652152.961,36
1580652162.961,36
1580652172.961,36
1580652182.961,36
1580652192.961,36
1580652202.961,36
1580652212.961,37
1580652222.961,37
1580652232.961,37
1580652242.961,37
1580652252.961,37
1580652262.961,37
1580652272.961,37
1580652282.961,37
1580652292.961,37
1580652302.961,37
1580652312.961,37
1580652322.961,37
1580652332.961,37
1580652342.961,37
1580652352.961,37
1580652362.961,37
1580652372.961,38
1580652382.961,38
1580652392.961,38
1580652402.961,38
1580652412.961,38
1580652422.961,38
1580652432.961,38
1580652442.961,38
1580652452.961,38
1580652462.961,38
1580652472.961,38
1580652482.961,39
1580652492.961,39
1580652502.961,39
1580652512.961,39
1580652522.961,39
1580652532.961,40
1580652542.961,40
1580652552.961,40
1580652562.961,40
1580652572.961,40
1580652582.961,40
1580652602.961,40
1580652612.961,40
1580652622.961,40
1580652632.961,40
1580652642.961,40
1580652652.961,41
1580652662.961,41
1580652672.961,41
1580652682.961,41
1580652692.961,41
1580652702.961,41
1580652712.961,41
1580652722.961,41
1580652732.961,41
1580652742.961,41
1580652752.961,41
1580652762.961,41
1580652772.961,41
1580652782.961,41
1580652792.961,42
1580652802.961,42
1580652812.961,42
1580652822.961,42
1580652832.961,42
1580652842.961,42
1580652852.961,42
1580652862.961,42
1580652872.961,42
1580652882.961,42
1580652892.961,42
1580652902.961,42
1580652912.961,42
1580652922.961,43
1580652932.961,43
1580652942.961,43
1580652952.961,43
1580652962.961,43
1580652972.961,43
1580652982.961,43
1580652992.961,43
1580653002.961,43
1580653012.961,43
1580653022.961,43
1580653032.961,43
1580653042.961,43
1580653052.961,43
1580653062.961,43
1580653072.961,43
1580653082.961,43
1580653092.961,44
1580653102.961,44
1580653112.961,44
1580653122.961,44
1580653132.961,44
1580653142.961,44
1580653152.961,44
1580653162.961,44
1580653172.961,44
1580653182.961,44
1580653192.961,44
1580653202.961,44
1580653212.961,44
1580653222.961,44
1580653232.961,44
1580653242.961,44
1580653252.961,44
1580653262.961,44
1580653272.961,44
1580653282.961,44
1580653292.961,45
1580653302.961,45
1580653312.961,45
1580653322.961,45
1580653332.961,45
1580653342.961,45
1580653352.961,45
1580653362.961,45
1580653372.961,45
1580653382.961,45
1580653392.961,45
1580653402.961,45
1580653412.961,45
1580653422.961,46
1580653432.961,46
1580653442.961,46
1580653452.961,46
1580653462.961,46
1580653472.961,46
1580653482.961,46
1580653492.961,46
1580653502.961,46
1580653512.961,46
1580653522.961,46
1580653542.961,46
1580653552.961,46
1580653562.961,46
1580653572.961,46
1580653582.961,46
1580653592.961,46
1580653602.961,47
1580653612.961,47
1580653622.961,47
1580653632.961,47
1580653642.961,47
1580653652.961,47
1580653662.961,47
1580653672.961,47
1580653682.961,47
1580653692.961,47
1580653702.961,47
1580653712.961,47
1580653722.961,47
1580653732.961,47
1580653742.961,47
1580653752.961,47
1580653762.961,47
1580653772.961,47
1580653782.961,47
1580653792.961,47
1580653802.961,47
1580653812.961,47
1580653822.961,47
1580653832.961,47
1580653852.961,48
1580653862.961,48
1580653882.961,48
1580653892.961,48
1580653902.961,48
1580653912.961,48
1580653922.961,48
1580653932.961,48
1580653942.961,48
1580653952.961,48
1580653962.961,48
1580653972.961,48
1580653982.961,48
1580653992.961,48
1580654002.961,48
1580654012.962,48
1580654022.961,48
1580654032.961,48
1580654042.961,48
1580654052.961,48
1580654062.961,49
1580654072.961,49
1580654082.961,49
1580654092.961,49
1580654102.961,49
1580654112.961,49
1580654122.961,49
1580654132.961,49
1580654142.961,49
1580654152.961,49
1580654172.961,49
1580654182.961,49
1580654192.961,49
1580654202.961,49
1580654212.961,49
1580654222.961,49
1580654232.961,49
1580654242.961,49
1580654252.961,49
1580654262.961,49
1580654272.961,49
1580654282.961,49
1580654292.961,49
1580654302.961,49
1580654312.961,50
1580654322.961,50
1580654332.961,50
1580654342.961,50
1580654352.961,50
1580654362.961,50
1580654372.961,50
1580654382.961,50
1580654392.961,50
1580654402.961,50
1580654412.961,50
1580654422.961,50
1580654432.961,50
1580654442.961,50
1580654452.961,50
1580654462.961,50
1580654472.961,50
1580654482.961,50
1580654492.961,50
1580654502.961,50
1580654512.961,50
1580654522.961,50
1580654532.961,51
1580654542.961,51
1580654552.961,51
1580654562.961,51
1580654572.961,51
1580654582.961,51
1580654592.961,51
1580654602.961,51
1580654612.961,51
1580654622.961,51
1580654632.961,51
1580654642.963,51
1580654652.961,51
1580654662.961,51
1580654672.961,51
1580654682.961,51
1580654692.961,51
1580654702.961,51
1580654712.961,51
1580654722.961,51
1580654732.961,51
1580654742.961,51
1580654752.961,51
1580654762.961,51
