epoch,value
1579911523.532,248262
1579911533.510,248263
1579911543.510,248263
1579911553.510,248263
1579911563.510,248264
1579911573.510,248264
1579911583.512,248264
1579911593.510,248264
1579911603.511,248264
1579911613.510,248264
1579911623.510,248264
1579911633.510,248266
1579911643.510,248266
1579911653.510,248266
1579911663.510,248266
1579911673.510,248266
1579911683.510,248266
1579911693.510,248266
1579911703.510,248266
1579911713.510,248266
1579911723.510,248266
1579911733.510,248268
1579911743.510,248268
1579911753.510,248268
1579911763.510,248269
1579911773.510,248269
1579911783.510,248270
1579911793.510,248270
1579911803.510,248270
1579911813.510,248270
1579911823.510,248272
1579911833.510,248272
1579911843.512,248272
1579911853.510,248272
1579911863.510,248272
1579911873.510,248272
1579911883.510,248274
1579911893.510,248274
1579911903.510,248274
1579911913.510,248274
1579911923.510,248274
1579911933.512,248274
1579911943.510,248274
1579911953.510,248274
1579911963.510,248275
1579911973.510,248275
1579911983.510,248276
1579911993.510,248277
1579912003.510,248277
1579912013.510,248278
1579912023.510,248279
1579912033.510,248280
1579912043.510,248280
1579912053.510,248280
1579912063.510,248281
1579912073.510,248281
1579912083.510,248283
1579912093.510,248284
1579912103.510,248284
1579912113.510,248285
1579912123.510,248285
1579912133.511,248285
1579912143.510,248285
1579912153.510,248286
1579912163.510,248287
1579912173.510,248288
1579912183.510,248288
1579912193.510,248288
1579912203.510,248288
1579912213.510,248288
1579912223.510,248289
1579912233.510,248290
1579912243.510,248290
1579912253.510,248291
1579912263.510,248292
1579912273.510,248294
1579912283.510,248294
1579912293.510,248295
1579912303.510,248296
1579912313.511,248297
1579912323.510,248298
1579912333.510,248298
1579912343.510,248298
1579912353.510,248299
1579912363.510,248299
1579912373.510,248300
1579912383.510,248300
1579912393.510,248300
1579912403.510,248300
1579912413.510,248300
1579912423.510,248301
1579912433.512,248302
1579912443.510,248302
1579912453.510,248304
1579912463.510,248304
1579912473.510,248304
1579912483.510,248306
1579912493.510,248306
1579912503.510,248306
1579912513.510,248306
1579912523.510,248306
1579912533.510,248307
1579912543.512,248307
1579912553.510,248308
1579912563.510,248309
1579912573.510,248310
1579912583.511,248311
1579912593.510,248312
1579912603.510,248313
1579912613.513,248313
1579912623.510,248314
1579912633.511,248314
1579912643.510,248314
1579912653.510,248314
1579912663.510,248314
1579912673.510,248316
1579912683.510,248316
1579912693.511,248316
1579912703.510,248316
1579912713.511,248316
1579912723.510,248316
1579912733.510,248320
1579912743.510,248320
1579912753.512,248322
1579912763.510,248322
1579912773.510,248323
1579912783.510,248324
1579912793.510,248324
1579912803.512,248325
1579912813.510,248325
1579912823.510,248325
1579912833.510,248326
1579912843.510,248327
1579912853.510,248328
1579912863.510,248329
1579912873.510,248329
1579912883.510,248330
1579912893.510,248331
1579912903.510,248334
1579912913.510,248336
1579912923.510,248336
1579912933.510,248336
1579912943.510,248336
1579912953.510,248337
1579912963.510,248337
1579912973.510,248337
1579912983.510,248337
1579912993.510,248337
1579913003.510,248338
1579913013.510,248339
1579913023.510,248339
1579913033.512,248341
1579913043.510,248342
1579913053.510,248342
1579913063.510,248343
1579913073.510,248343
1579913083.510,248344
1579913093.511,248344
1579913103.510,248344
1579913113.510,248345
1579913123.510,248345
1579913133.510,248345
1579913143.510,248347
1579913153.510,248349
1579913163.510,248350
1579913173.511,248350
1579913183.510,248352
1579913193.510,248352
1579913203.510,248353
1579913213.510,248354
1579913223.512,248354
1579913233.510,248354
1579913243.510,248354
1579913253.510,248354
1579913263.510,248356
1579913273.510,248356
1579913283.510,248357
1579913293.510,248358
1579913303.513,248358
1579913313.511,248360
1579913323.510,248360
1579913333.510,248361
1579913343.510,248362
1579913353.510,248363
1579913363.510,248364
1579913373.510,248366
1579913383.510,248367
1579913393.510,248369
1579913403.510,248369
1579913413.511,248370
1579913423.510,248370
1579913433.511,248371
1579913443.510,248373
1579913453.510,248374
1579913463.511,248375
1579913473.511,248375
1579913483.510,248376
1579913493.510,248376
1579913503.510,248377
1579913513.510,248380
1579913523.510,248380
1579913533.512,248381
1579913543.510,248381
1579913553.510,248382
1579913563.510,248382
1579913573.510,248383
1579913583.510,248384
1579913593.510,248385
1579913603.510,248385
1579913613.510,248386
1579913623.510,248386
1579913633.510,248386
1579913643.510,248388
1579913653.510,248389
1579913663.510,248389
1579913673.510,248389
1579913683.511,248390
1579913693.510,248391
1579913703.510,248392
1579913713.513,248392
1579913723.510,248392
1579913733.511,248394
1579913743.510,248394
1579913753.510,248394
1579913763.510,248394
1579913773.510,248395
1579913783.510,248395
1579913793.510,248396
1579913803.511,248396
1579913813.510,248396
1579913823.511,248397
1579913833.510,248397
1579913843.510,248398
1579913853.510,248399
1579913863.510,248400
1579913873.510,248400
1579913883.510,248400
1579913893.511,248400
1579913903.510,248401
1579913913.510,248402
1579913923.510,248403
1579913933.510,248404
1579913943.510,248404
1579913953.510,248406
1579913963.510,248406
1579913973.510,248406
1579913983.511,248408
1579913993.510,248408
1579914003.510,248409
1579914013.512,248409
1579914023.510,248411
1579914033.510,248411
1579914043.510,248412
1579914053.510,248413
1579914063.510,248414
1579914073.510,248415
1579914083.510,248415
1579914093.513,248416
1579914103.510,248416
1579914113.510,248417
1579914123.511,248418
1579914133.510,248418
1579914143.516,248419
1579914153.510,248422
1579914163.510,248422
1579914173.511,248423
1579914183.510,248424
1579914193.510,248426
1579914203.510,248427
1579914213.510,248427
1579914223.510,248429
1579914233.510,248429
1579914243.510,248429
1579914253.510,248430
1579914263.510,248430
1579914273.510,248430
1579914283.510,248430
