epoch,value
1580753833.048,438055
1580753843.030,438055
1580753853.031,438055
1580753863.030,438055
1580753873.030,438055
1580753883.030,438055
1580753893.032,438071
1580753903.030,438116
1580753913.030,438152
1580753923.030,438201
1580753933.032,438257
1580753943.030,438301
1580753953.030,438353
1580753963.030,438405
1580753973.030,438460
1580753983.031,438518
1580753993.030,438578
1580754003.030,438642
1580754013.031,438704
1580754023.030,438767
1580754033.031,438812
1580754043.030,438866
1580754053.030,438917
1580754063.030,438975
1580754073.030,439030
1580754083.030,439085
1580754093.030,439151
1580754103.030,439207
1580754113.030,439265
1580754123.030,439312
1580754133.030,439370
1580754143.030,439436
1580754153.030,439500
1580754163.030,439567
1580754173.031,439629
1580754183.030,439690
1580754193.030,439764
1580754203.030,439833
1580754213.031,439902
1580754223.030,439958
1580754233.030,440027
1580754243.030,440108
1580754253.030,440169
1580754263.030,440238
1580754273.030,440304
1580754283.033,440350
1580754293.030,440350
1580754303.030,440350
1580754313.030,440350
1580754323.030,440350
1580754333.030,440350
1580754343.030,440351
1580754353.030,440351
1580754363.030,440352
1580754373.030,440352
1580754383.030,440352
1580754393.030,440354
1580754403.031,440354
1580754413.030,440355
1580754423.030,440355
1580754433.030,440356
1580754443.030,440356
1580754453.030,440356
1580754463.030,440356
1580754473.030,440356
1580754483.030,440356
1580754493.030,440356
1580754503.030,440356
1580754513.033,440357
1580754523.032,440357
1580754533.033,440358
1580754543.030,440358
1580754553.030,440358
1580754563.030,440358
1580754573.033,440358
1580754583.033,440359
1580754593.030,440359
1580754603.030,440359
1580754613.030,440359
1580754623.030,440359
1580754633.030,440361
1580754643.030,440361
1580754653.030,440361
1580754663.030,440361
1580754673.030,440361
1580754683.031,440361
1580754693.030,440362
1580754703.030,440362
1580754713.030,440363
1580754723.030,440364
1580754733.030,440365
1580754743.030,440365
1580754753.030,440365
1580754763.030,440365
1580754773.030,440365
1580754783.030,440366
1580754793.031,440366
1580754803.033,440366
1580754813.030,440367
1580754823.030,440367
1580754833.030,440368
1580754843.030,440370
1580754853.030,440372
1580754863.030,440372
1580754873.031,440372
1580754883.030,440372
1580754893.030,440372
1580754903.033,440372
1580754913.030,440374
1580754923.030,440374
1580754933.030,440374
1580754943.032,440374
1580754953.032,440374
1580754963.030,440376
1580754973.031,440376
1580754983.033,440377
1580754993.030,440378
1580755003.030,440378
1580755013.030,440378
1580755023.030,440378
1580755033.030,440379
1580755043.030,440379
1580755053.031,440380
1580755063.032,440380
1580755073.030,440381
1580755083.030,440381
1580755093.031,440382
