epoch,value
1580818483.493,0
1580818493.493,0
1580818503.493,0
1580818513.497,0
1580818523.493,0
1580818533.493,0
1580818543.493,0
1580818553.493,0
1580818563.493,1
1580818573.493,1
1580818583.493,1
1580818593.493,1
1580818603.493,2
1580818613.493,2
1580818623.493,3
1580818633.493,3
1580818643.493,4
1580818653.493,5
1580818663.493,5
1580818673.493,5
1580818683.493,5
1580818693.493,5
1580818703.493,6
1580818713.493,6
1580818723.493,6
1580818743.493,6
1580818753.493,7
1580818763.493,7
1580818773.497,7
1580818783.493,7
1580818793.493,7
1580818803.493,7
1580818813.493,7
1580818823.494,8
1580818833.493,8
1580818843.493,8
1580818853.493,9
1580818863.493,9
1580818873.493,9
1580818883.493,9
1580818893.493,9
1580818903.493,9
1580818913.493,9
1580818923.493,9
1580818933.493,9
1580818943.493,9
1580818953.493,9
1580818963.493,9
1580818973.493,9
1580818983.493,9
1580818993.493,9
1580819003.493,9
1580819013.493,9
1580819023.493,9
1580819033.493,9
1580819043.493,9
1580819053.493,9
1580819063.493,9
1580819073.493,9
1580819083.493,9
1580819093.493,9
1580819103.494,9
1580819113.493,9
1580819123.493,9
1580819133.493,9
1580819143.493,9
1580819153.493,9
1580819163.493,9
1580819173.493,9
1580819183.493,9
1580819193.493,9
1580819203.493,9
1580819213.493,9
1580819223.493,9
1580819233.493,9
1580819243.493,9
1580819253.493,9
1580819263.493,9
1580819273.493,9
1580819283.493,9
1580819293.493,9
1580819303.493,9
1580819313.493,9
1580819323.493,9
1580819333.493,9
1580819343.493,9
1580819353.493,9
1580819363.493,9
1580819373.493,9
1580819383.493,9
1580819393.493,9
1580819403.493,9
1580819413.493,9
1580819423.493,9
1580819433.500,9
1580819443.493,9
1580819453.493,9
1580819463.493,9
1580819473.493,9
1580819483.493,9
1580819493.493,9
1580819503.493,9
1580819513.493,9
1580819523.493,9
1580819533.493,9
1580819543.493,9
1580819553.493,9
1580819563.496,9
1580819573.493,9
1580819583.493,9
1580819593.493,9
1580819603.493,9
1580819613.493,10
1580819623.493,10
1580819633.493,10
1580819643.493,10
1580819653.493,10
1580819663.494,10
1580819673.493,10
1580819683.493,10
1580819693.493,10
1580819703.493,10
1580819713.493,10
1580819723.493,10
1580819733.493,10
1580819743.493,10
1580819753.493,10
1580819763.493,10
1580819773.493,10
1580819783.493,10
1580819793.493,10
1580819803.493,10
1580819813.493,10
1580819823.493,10
1580819833.493,10
1580819843.493,10
1580819853.493,10
1580819863.493,10
1580819873.493,10
1580819883.493,10
1580819893.493,10
1580819903.493,10
1580819913.493,10
1580819923.493,10
1580819933.493,10
1580819943.493,10
1580819953.493,10
1580819963.493,10
1580819973.493,10
1580819983.493,10
1580819993.493,10
1580820003.493,10
1580820013.493,10
1580820023.493,10
1580820033.493,10
1580820043.493,10
1580820053.493,10
1580820063.493,10
1580820073.493,10
1580820083.493,10
