epoch,value
1579790460.249,236700
1579790470.232,236701
1579790480.231,236701
1579790490.231,236701
1579790500.231,236703
1579790510.231,236704
1579790520.231,236704
1579790530.231,236704
1579790540.231,236706
1579790550.230,236706
1579790560.231,236706
1579790570.232,236706
1579790580.233,236706
1579790590.231,236707
1579790600.231,236707
1579790610.231,236708
1579790620.233,236708
1579790630.232,236708
1579790640.232,236708
1579790650.231,236709
1579790660.231,236711
1579790670.232,236711
1579790680.231,236712
1579790690.231,236712
1579790700.231,236712
1579790710.231,236712
1579790720.231,236712
1579790730.231,236712
1579790740.235,236712
1579790750.231,236712
1579790760.231,236712
1579790770.231,236713
1579790780.232,236713
1579790790.231,236713
1579790800.231,236714
1579790810.231,236714
1579790820.231,236715
1579790830.231,236715
1579790840.231,236716
1579790850.230,236716
1579790860.231,236717
1579790870.231,236717
1579790880.231,236718
1579790890.231,236718
1579790900.231,236719
1579790910.231,236720
1579790920.231,236720
1579790930.231,236720
1579790940.231,236720
1579790950.231,236720
1579790960.231,236721
1579790970.231,236722
1579790980.231,236722
1579790990.231,236722
1579791000.231,236722
1579791010.231,236723
1579791020.230,236723
1579791030.231,236724
1579791040.231,236726
1579791050.230,236726
1579791060.231,236726
1579791070.231,236727
1579791080.231,236728
1579791090.232,236729
1579791100.231,236729
1579791110.231,236730
1579791120.231,236732
1579791130.231,236732
1579791140.232,236734
1579791150.231,236734
1579791160.231,236736
1579791170.231,236736
1579791180.231,236737
1579791190.231,236737
1579791200.231,236738
1579791210.231,236740
1579791220.231,236741
1579791230.231,236743
1579791240.231,236743
1579791250.231,236743
1579791260.231,236744
1579791270.231,236744
1579791280.231,236744
1579791290.231,236745
1579791300.231,236746
1579791310.231,236747
1579791320.231,236748
1579791330.231,236749
1579791340.231,236750
1579791350.231,236750
1579791360.232,236750
1579791370.232,236752
1579791380.231,236752
1579791390.231,236753
1579791400.231,236754
1579791410.232,236755
1579791420.234,236755
1579791430.231,236756
1579791440.232,236758
1579791450.231,236758
1579791460.231,236758
1579791470.231,236759
1579791480.233,236760
1579791490.231,236761
1579791500.231,236761
1579791510.231,236761
1579791520.231,236761
1579791530.231,236761
1579791540.231,236761
1579791550.231,236762
1579791560.231,236762
1579791570.231,236762
1579791580.231,236762
1579791590.231,236762
1579791600.231,236763
1579791610.231,236763
1579791620.231,236763
1579791630.232,236764
1579791640.231,236764
1579791650.231,236764
1579791660.231,236764
1579791670.231,236766
1579791680.231,236767
1579791690.231,236767
1579791700.234,236768
1579791710.231,236768
1579791720.231,236769
1579791730.231,236770
1579791740.231,236770
1579791750.232,236770
1579791760.231,236770
1579791770.231,236771
1579791780.230,236771
1579791790.231,236772
1579791800.230,236773
1579791810.231,236773
1579791820.236,236774
1579791830.231,236774
1579791840.231,236775
1579791850.231,236776
1579791860.231,236778
1579791870.231,236778
1579791880.231,236778
1579791890.232,236779
1579791900.232,236779
1579791910.230,236780
1579791920.231,236780
1579791930.232,236781
1579791940.231,236781
1579791950.231,236781
1579791960.231,236782
1579791970.231,236784
1579791980.232,236786
1579791990.231,236786
1579792000.231,236787
1579792010.231,236787
1579792020.231,236789
