epoch,value
1579785128.064,37748
1579785138.047,37748
1579785148.048,37748
1579785158.047,37748
1579785168.047,37748
1579785178.049,37748
1579785188.047,37748
1579785198.047,37748
1579785208.047,37748
1579785218.047,37748
1579785228.047,37748
1579785238.047,37748
1579785248.047,37748
1579785258.050,37748
1579785268.047,37748
1579785278.047,37748
1579785288.047,37748
1579785298.047,37748
1579785308.047,37748
1579785318.048,37748
1579785328.049,37748
1579785338.047,37748
1579785348.048,37748
1579785358.047,37748
1579785368.047,37748
1579785378.047,37748
1579785388.048,37748
1579785398.047,37748
1579785408.047,37748
1579785418.048,37748
1579785428.047,37750
1579785438.048,37750
1579785448.047,37750
1579785458.047,37750
1579785468.047,37750
1579785478.047,37750
1579785488.048,37750
1579785498.048,37750
1579785508.047,37750
1579785518.047,37750
1579785528.048,37750
1579785538.047,37750
1579785548.047,37750
1579785558.047,37750
1579785568.051,37751
1579785578.047,37751
1579785588.047,37752
1579785598.047,37752
1579785608.047,37752
1579785618.047,37752
1579785628.047,37752
1579785638.049,37752
1579785648.047,37752
1579785658.047,37752
1579785668.047,37752
1579785678.047,37752
1579785688.049,37752
1579785698.047,37752
1579785708.049,37752
1579785718.051,37752
1579785728.048,37752
1579785738.047,37752
1579785748.049,37754
1579785758.047,37754
1579785768.050,37754
1579785778.049,37756
1579785788.047,37756
1579785798.047,37756
1579785808.047,37756
1579785818.047,37756
1579785828.047,37756
1579785838.049,37756
1579785848.049,37756
1579785858.047,37756
1579785868.047,37756
1579785878.047,37756
1579785888.047,37756
1579785898.048,37756
1579785908.047,37756
1579785918.048,37756
1579785928.047,37756
1579785938.047,37756
1579785948.047,37756
1579785958.047,37756
1579785968.047,37756
1579785978.047,37756
1579785988.047,37756
1579785998.047,37756
1579786008.048,37756
1579786018.047,37756
1579786028.047,37756
1579786038.047,37756
1579786048.047,37756
1579786058.047,37759
1579786068.047,37759
1579786078.047,37759
1579786088.047,37759
1579786098.047,37759
1579786108.047,37759
1579786118.048,37759
1579786128.047,37759
1579786138.048,37759
1579786148.047,37759
1579786158.047,37759
1579786168.047,37759
1579786178.047,37759
1579786188.047,37759
1579786198.047,37759
1579786208.047,37759
1579786218.049,37759
1579786228.049,37759
1579786238.047,37759
1579786248.047,37760
1579786258.048,37761
1579786268.047,37761
1579786278.047,37761
1579786288.047,37762
1579786298.047,37762
1579786308.047,37762
1579786318.047,37762
1579786328.047,37762
1579786338.047,37762
1579786348.047,37762
1579786358.047,37762
1579786368.048,37762
1579786378.047,37762
1579786388.047,37762
1579786398.047,37762
1579786408.047,37762
1579786418.047,37762
1579786428.047,37762
1579786438.051,37762
1579786448.047,37763
1579786458.047,37763
1579786468.050,37763
1579786478.047,37763
1579786488.047,37763
1579786498.048,37763
1579786508.047,37763
1579786518.047,37764
1579786528.048,37764
1579786538.047,37764
1579786548.047,37764
1579786558.047,37764
1579786568.050,37764
1579786578.048,37764
1579786588.047,37764
1579786598.047,37764
1579786608.047,37764
1579786618.049,37764
1579786628.047,37764
1579786638.049,37764
1579786648.047,37764
1579786658.047,37764
1579786668.049,37764
1579786678.047,37764
1579786688.047,37764
