epoch,value
1580239347.628,0
1580239357.628,0
1580239367.628,0
1580239377.628,0
1580239387.631,0
1580239397.629,0
1580239407.628,0
1580239417.628,0
1580239427.628,0
1580239437.628,0
1580239447.628,0
1580239457.628,0
1580239467.628,0
1580239477.628,0
1580239487.628,0
1580239497.628,0
1580239507.628,0
1580239517.628,0
1580239527.628,1
1580239537.629,1
1580239547.628,1
1580239557.628,1
1580239567.628,1
1580239577.629,1
1580239587.628,1
1580239597.628,1
1580239607.628,1
1580239617.628,2
1580239627.628,2
1580239637.628,2
1580239647.628,2
1580239657.628,2
1580239667.628,2
1580239677.628,2
1580239687.628,2
1580239697.628,2
1580239707.628,2
1580239717.628,2
1580239727.628,2
1580239737.628,2
1580239747.628,2
1580239757.628,2
1580239767.628,2
1580239777.628,2
1580239787.628,2
1580239797.628,2
1580239807.628,2
1580239817.628,2
1580239827.628,2
1580239837.628,2
1580239847.628,2
1580239857.628,2
1580239867.628,3
1580239877.628,3
1580239887.628,3
1580239897.628,3
1580239907.628,3
1580239917.628,3
1580239927.628,3
1580239937.628,3
1580239947.628,3
1580239957.628,3
1580239967.628,3
1580239977.628,3
1580239987.628,3
1580239997.628,3
1580240007.633,3
1580240017.628,3
1580240027.628,3
1580240037.628,3
1580240047.628,4
1580240057.628,4
1580240067.628,4
1580240077.628,4
1580240087.628,4
1580240107.628,4
1580240117.628,4
1580240127.628,4
1580240137.628,4
1580240147.628,4
1580240157.628,4
1580240167.628,4
1580240177.628,4
1580240187.628,4
1580240197.628,4
1580240207.628,4
1580240217.628,4
1580240227.628,4
1580240237.628,4
1580240247.628,5
1580240257.628,5
1580240267.628,5
1580240277.628,5
1580240287.628,5
1580240297.628,5
1580240307.633,5
1580240317.628,5
1580240327.628,5
1580240337.628,5
1580240347.628,5
1580240357.628,5
1580240367.628,5
1580240377.628,5
1580240387.629,5
1580240397.628,5
1580240407.628,6
1580240417.628,6
1580240427.628,6
1580240437.629,6
1580240447.628,6
1580240457.628,6
1580240467.628,6
1580240477.628,6
1580240487.628,6
1580240497.628,6
1580240507.628,6
1580240517.633,6
1580240527.628,6
1580240537.628,6
1580240547.628,7
1580240557.628,7
1580240567.628,7
1580240577.628,7
1580240587.628,7
1580240597.628,7
1580240607.628,7
1580240617.628,7
1580240627.628,7
1580240637.628,7
1580240647.628,7
1580240657.628,7
1580240667.628,7
1580240677.628,7
1580240687.628,7
1580240697.628,7
1580240707.628,7
1580240717.628,8
1580240727.628,8
1580240737.628,8
1580240747.628,8
1580240757.628,8
1580240767.628,8
1580240777.628,8
1580240787.628,8
1580240797.628,8
1580240807.628,8
1580240817.628,8
1580240827.628,8
1580240837.628,8
1580240847.628,8
1580240857.628,8
1580240867.628,8
1580240877.628,8
1580240887.628,8
1580240897.628,8
1580240907.628,9
1580240917.629,9
1580240927.629,9
1580240937.628,9
1580240947.628,9
1580240957.628,9
1580240967.628,9
1580240977.628,9
1580240987.628,9
1580240997.628,9
1580241007.628,9
1580241017.628,10
1580241027.628,10
1580241037.628,10
1580241047.628,10
1580241057.628,10
1580241067.628,10
1580241077.628,10
1580241087.628,10
1580241097.628,10
1580241107.628,10
1580241117.628,10
1580241127.628,10
1580241137.628,10
1580241147.633,11
1580241157.628,11
1580241167.628,11
1580241177.628,11
1580241187.628,11
1580241197.628,11
1580241207.628,11
1580241217.628,11
1580241227.628,11
1580241237.628,11
1580241247.628,11
1580241257.628,11
1580241267.628,12
1580241277.628,12
1580241287.628,12
1580241297.628,12
1580241307.628,12
1580241317.628,12
1580241327.628,12
1580241337.628,12
1580241347.628,12
1580241357.628,12
1580241367.628,12
1580241377.628,12
1580241387.628,12
1580241397.628,12
1580241407.628,12
1580241417.628,12
1580241427.628,12
1580241437.628,12
1580241447.628,12
1580241457.628,12
1580241467.628,12
1580241477.628,13
1580241487.628,13
1580241497.628,13
1580241507.628,13
1580241517.628,13
1580241527.628,13
1580241537.628,13
1580241547.628,13
1580241557.628,13
1580241567.628,13
1580241577.628,13
1580241587.628,13
1580241597.628,13
1580241607.628,13
1580241617.628,14
1580241627.628,14
1580241637.628,14
1580241647.628,14
1580241657.628,14
1580241667.628,14
1580241677.628,14
1580241687.628,14
1580241697.628,14
1580241707.628,14
1580241717.628,14
1580241727.628,14
1580241737.628,14
1580241747.628,14
1580241757.628,14
1580241767.628,14
1580241777.628,15
1580241787.628,15
1580241797.628,15
1580241807.628,15
1580241817.628,15
1580241827.628,15
1580241837.628,15
1580241847.628,15
1580241857.628,15
1580241867.628,16
1580241877.628,16
1580241887.628,16
1580241897.629,16
1580241907.629,16
1580241917.628,16
1580241927.628,16
1580241937.628,16
1580241947.628,16
1580241957.628,16
1580241967.628,16
1580241977.628,16
1580241987.628,16
1580241997.628,17
1580242007.628,17
1580242017.628,17
1580242027.628,17
1580242037.628,17
1580242047.628,17
1580242057.628,17
1580242067.628,17
1580242077.628,17
