epoch,value
1579797903.951,0
1579797913.951,0
1579797923.951,0
1579797933.951,0
1579797943.951,0
1579797953.951,0
1579797963.951,0
1579797973.951,0
1579797993.951,0
1579798003.951,0
1579798013.951,0
1579798023.951,0
1579798033.951,1
1579798043.951,1
1579798053.951,1
1579798063.951,1
1579798073.957,1
1579798083.951,1
1579798093.951,1
1579798103.951,1
1579798113.951,1
1579798123.951,1
1579798133.951,1
1579798143.951,1
1579798153.951,1
1579798163.951,1
1579798173.951,1
1579798183.951,1
1579798193.951,1
1579798203.951,1
1579798213.951,1
1579798223.951,2
1579798233.951,2
1579798243.951,2
1579798253.951,2
1579798263.951,2
1579798273.951,2
1579798283.951,2
1579798293.951,2
1579798303.951,2
1579798313.951,2
1579798333.951,2
1579798343.951,2
1579798353.951,2
1579798363.951,2
1579798373.953,2
1579798383.951,2
1579798393.951,2
1579798403.951,2
1579798413.951,2
1579798423.951,2
1579798433.951,2
1579798443.951,2
1579798453.952,2
1579798463.951,2
1579798473.951,3
1579798483.951,3
1579798493.951,3
1579798503.951,3
1579798513.951,3
1579798523.951,3
1579798533.951,3
1579798543.951,3
1579798553.951,3
1579798563.951,3
1579798573.951,3
1579798583.951,3
1579798593.951,3
1579798603.951,3
1579798613.955,3
1579798623.957,3
1579798633.951,4
1579798643.951,4
1579798653.951,4
1579798663.951,4
1579798673.951,4
1579798683.951,4
1579798693.951,4
1579798703.951,4
1579798713.951,4
1579798723.951,4
1579798733.951,4
1579798743.951,4
1579798753.951,4
1579798763.951,4
1579798773.951,4
1579798783.951,4
1579798793.951,4
1579798803.951,4
1579798813.951,5
1579798823.951,5
1579798833.951,5
1579798843.951,5
1579798853.951,5
1579798863.951,5
1579798873.951,5
1579798883.951,5
1579798893.951,5
1579798903.951,5
1579798913.951,5
1579798923.951,5
1579798933.951,5
1579798943.951,5
1579798953.951,5
1579798963.951,5
1579798973.951,5
1579798983.951,5
1579799003.951,5
1579799013.951,5
1579799023.951,5
1579799033.951,5
1579799043.951,5
1579799053.951,5
1579799063.951,5
1579799073.951,5
1579799083.951,5
1579799093.951,5
1579799103.951,5
1579799113.951,5
1579799123.951,5
1579799133.951,5
1579799143.951,5
1579799153.951,5
1579799163.951,6
1579799173.951,6
1579799183.951,6
1579799193.951,6
1579799203.951,6
1579799213.951,6
1579799223.951,6
1579799233.951,6
1579799243.951,6
1579799253.951,6
1579799263.951,6
1579799273.951,6
1579799283.951,6
1579799293.951,6
1579799303.951,6
1579799313.951,6
1579799323.951,7
1579799333.951,7
1579799343.951,7
1579799353.951,7
1579799363.951,7
1579799373.951,7
1579799383.951,7
1579799393.951,7
1579799403.951,7
1579799413.951,7
1579799423.951,7
1579799433.951,8
