epoch,value
1580232434.514,0
1580232444.514,0
1580232454.514,0
1580232464.514,0
1580232474.514,0
1580232484.514,1
1580232494.514,1
1580232504.514,5
1580232514.514,6
1580232524.514,7
1580232534.514,8
1580232554.514,11
1580232564.514,12
1580232574.514,14
1580232584.514,19
1580232594.514,22
1580232604.514,23
1580232614.514,27
1580232624.514,29
1580232634.514,32
1580232644.514,34
1580232654.514,39
1580232664.514,42
1580232674.514,42
1580232684.514,43
1580232694.514,46
1580232704.514,47
1580232714.515,49
1580232724.514,57
1580232734.514,58
1580232744.514,61
1580232754.514,69
1580232764.514,71
1580232774.514,71
1580232784.514,71
1580232794.514,71
1580232804.514,71
1580232814.514,72
1580232824.514,72
1580232834.514,72
1580232844.514,72
1580232854.514,72
1580232864.514,72
1580232874.514,72
1580232884.514,72
1580232894.514,72
1580232904.514,72
1580232914.514,72
1580232924.514,72
1580232934.514,72
1580232944.514,72
1580232954.514,72
1580232964.514,72
1580232974.514,72
1580232984.514,72
1580232994.514,72
1580233004.514,72
1580233014.514,72
1580233024.519,72
1580233034.514,72
1580233044.514,72
1580233054.514,72
1580233064.514,72
1580233074.514,72
1580233084.514,72
1580233094.514,72
1580233104.514,72
1580233114.514,72
1580233124.514,72
1580233134.514,72
1580233144.514,72
1580233154.514,73
1580233164.514,73
1580233174.514,73
1580233184.514,73
1580233194.514,73
1580233204.519,73
1580233214.514,73
1580233224.514,73
1580233234.514,73
1580233244.517,73
1580233254.514,73
1580233264.514,73
1580233274.514,73
1580233284.514,73
1580233294.514,73
1580233304.514,73
1580233314.514,73
1580233324.514,73
1580233334.514,73
1580233344.519,73
1580233354.514,73
1580233364.514,73
1580233374.514,73
1580233384.514,73
1580233394.514,73
1580233404.514,73
1580233414.514,73
1580233424.514,73
1580233434.514,73
1580233444.514,73
1580233454.514,73
1580233464.515,73
1580233474.514,73
1580233484.514,73
1580233494.514,74
1580233504.514,74
1580233514.514,74
1580233524.514,74
1580233534.514,74
1580233544.514,74
1580233554.514,74
1580233564.514,74
1580233574.514,74
1580233584.514,74
1580233594.514,74
1580233604.514,74
1580233614.514,74
1580233624.514,74
1580233634.514,74
1580233644.514,74
1580233654.514,74
1580233664.514,74
1580233674.514,74
1580233684.514,74
1580233694.514,74
1580233704.514,74
1580233714.514,74
1580233724.514,74
1580233734.514,74
1580233744.514,74
1580233754.514,74
1580233764.514,75
1580233774.514,75
1580233784.514,75
1580233794.514,75
1580233804.514,75
1580233814.514,75
1580233824.514,75
1580233834.514,75
1580233844.514,75
1580233854.514,75
1580233864.514,75
1580233874.514,75
1580233884.514,75
1580233894.514,75
1580233904.514,75
1580233914.514,75
1580233924.514,75
1580233934.514,75
1580233944.514,75
1580233954.514,75
1580233964.514,75
1580233974.514,75
1580233984.514,75
1580233994.514,75
1580234004.514,75
1580234014.514,75
1580234024.514,75
1580234034.514,75
1580234044.514,75
1580234054.514,75
1580234064.514,75
1580234074.514,76
1580234084.514,76
1580234094.514,76
1580234104.514,76
1580234114.514,76
1580234124.514,76
1580234134.514,76
1580234144.514,76
1580234154.514,76
1580234164.514,76
1580234174.514,76
1580234184.514,76
1580234194.514,76
1580234204.514,76
1580234214.514,76
1580234224.514,76
1580234234.514,76
1580234244.514,76
1580234254.514,76
1580234264.514,76
1580234274.514,76
1580234284.514,76
1580234294.514,76
1580234304.514,76
1580234314.514,76
1580234324.514,76
1580234334.514,76
1580234344.514,76
1580234354.514,76
1580234364.514,76
1580234374.514,76
1580234384.514,76
1580234394.514,76
1580234404.514,77
1580234414.514,77
1580234424.514,77
1580234434.514,77
1580234444.519,77
1580234454.514,77
1580234464.514,77
1580234474.514,77
1580234484.514,77
1580234494.514,77
1580234504.514,77
1580234514.514,77
1580234524.514,77
1580234534.514,77
1580234544.514,77
1580234554.514,77
1580234564.514,77
1580234574.514,77
1580234584.514,77
1580234594.514,77
1580234604.514,77
1580234614.514,77
1580234624.514,77
1580234634.514,78
1580234644.514,78
1580234654.514,78
1580234664.514,78
1580234674.514,78
