epoch,value
1580753862.629,0
1580753872.629,0
1580753882.629,0
1580753892.629,0
1580753902.629,0
1580753912.629,1
1580753922.629,1
1580753932.629,1
1580753942.629,1
1580753952.629,1
1580753962.629,1
1580753972.629,1
1580753982.629,1
1580753992.629,1
1580754002.629,2
1580754012.629,2
1580754022.629,2
1580754032.629,2
1580754042.629,2
1580754052.629,2
1580754062.629,2
1580754072.629,2
1580754082.629,2
1580754092.629,2
1580754102.629,2
1580754112.629,2
1580754122.629,2
1580754132.629,2
1580754142.629,2
1580754152.629,2
1580754162.629,2
1580754172.629,2
1580754182.629,2
1580754192.629,3
1580754202.629,3
1580754212.629,3
1580754222.629,3
1580754232.629,3
1580754242.629,3
1580754252.629,3
1580754262.629,3
1580754272.629,3
1580754282.629,3
1580754292.629,3
1580754302.629,3
1580754312.629,3
1580754322.629,4
1580754332.634,4
1580754342.629,4
1580754352.629,4
1580754362.629,4
1580754372.629,4
1580754382.636,4
1580754392.629,4
1580754402.629,4
1580754412.629,4
1580754422.629,4
1580754432.629,4
1580754442.629,4
1580754452.629,4
1580754472.630,4
1580754482.629,4
1580754492.629,4
1580754502.629,4
1580754512.629,4
1580754522.629,4
1580754532.629,4
1580754542.629,4
1580754552.629,4
1580754562.629,4
1580754572.629,4
1580754582.629,4
1580754592.629,4
1580754602.629,4
1580754612.629,4
1580754622.629,4
1580754632.629,4
1580754642.629,4
1580754652.629,4
1580754662.629,4
1580754672.629,4
1580754682.629,4
1580754692.629,4
1580754702.629,4
1580754712.629,4
1580754722.629,4
1580754732.629,4
1580754742.629,4
1580754752.629,4
1580754762.629,4
1580754772.629,4
1580754782.629,4
1580754792.629,4
1580754802.629,4
1580754812.629,5
1580754822.629,5
1580754832.629,5
1580754842.629,5
1580754852.629,5
1580754862.629,5
1580754872.629,5
1580754882.629,5
1580754892.629,5
1580754902.629,5
1580754912.629,5
1580754922.629,5
1580754932.629,5
1580754942.629,5
1580754952.629,5
1580754962.629,5
1580754972.629,5
1580754982.629,5
1580754992.629,5
1580755002.629,5
1580755012.629,5
1580755022.629,5
1580755032.629,5
1580755042.629,5
1580755052.629,5
1580755062.629,5
1580755072.629,5
1580755082.629,5
1580755092.629,5
