epoch,value
1580483437.160,412158
1580483447.134,412158
1580483457.134,412158
1580483467.134,412158
1580483477.134,412159
1580483487.134,412160
1580483497.134,412161
1580483507.134,412161
1580483517.135,412162
1580483527.134,412162
1580483537.134,412162
1580483547.134,412163
1580483557.134,412165
1580483567.134,412165
1580483577.134,412165
1580483587.134,412165
1580483597.137,412166
1580483607.134,412166
1580483617.134,412166
1580483627.134,412167
1580483637.135,412168
1580483647.134,412168
1580483657.134,412168
1580483667.134,412168
1580483677.134,412169
1580483687.135,412170
1580483697.134,412170
1580483707.134,412171
1580483717.136,412172
1580483727.134,412173
1580483737.134,412174
1580483747.134,412175
1580483757.134,412175
1580483767.135,412175
1580483777.134,412175
1580483787.134,412176
1580483797.134,412176
1580483807.134,412176
1580483817.134,412179
1580483827.135,412179
1580483837.134,412179
1580483847.134,412180
1580483857.134,412180
1580483867.134,412181
1580483877.134,412181
1580483887.134,412181
1580483897.134,412181
1580483907.134,412181
1580483917.135,412181
1580483927.134,412182
1580483937.134,412182
1580483947.134,412182
1580483957.134,412182
1580483967.134,412182
1580483977.134,412182
1580483987.135,412182
1580483997.135,412182
1580484007.134,412183
1580484017.134,412183
1580484027.134,412186
1580484037.134,412186
1580484047.134,412186
1580484057.134,412187
1580484067.135,412187
1580484077.135,412187
1580484087.135,412188
1580484097.134,412188
1580484107.134,412188
1580484117.134,412188
1580484127.134,412188
1580484137.136,412188
1580484147.135,412188
1580484157.134,412188
1580484167.134,412188
1580484177.135,412189
1580484187.134,412190
1580484197.134,412190
1580484207.135,412191
1580484217.134,412193
1580484227.134,412194
1580484237.134,412196
1580484247.134,412196
1580484257.134,412198
1580484267.134,412198
1580484277.134,412198
1580484287.136,412198
1580484297.134,412198
1580484307.135,412199
1580484317.134,412199
1580484327.134,412200
1580484337.134,412201
1580484347.134,412202
1580484357.134,412203
1580484367.134,412204
1580484377.134,412204
1580484387.134,412204
1580484397.134,412204
1580484407.134,412205
1580484417.134,412206
1580484427.134,412208
1580484437.137,412208
1580484447.134,412209
1580484457.134,412209
1580484467.134,412210
1580484477.135,412211
1580484487.137,412211
1580484497.134,412211
1580484507.134,412212
1580484517.134,412212
1580484527.134,412212
1580484537.134,412214
1580484547.134,412215
1580484557.134,412215
1580484567.134,412215
1580484577.134,412216
1580484587.134,412217
1580484597.134,412218
1580484607.140,412220
1580484617.136,412220
1580484627.134,412220
1580484637.135,412220
1580484647.134,412221
1580484657.134,412221
1580484667.136,412221
1580484677.134,412223
1580484687.134,412224
1580484697.135,412224
1580484707.134,412224
1580484717.134,412224
1580484727.134,412225
1580484737.134,412227
1580484747.134,412227
1580484757.134,412227
1580484767.135,412228
1580484777.134,412228
1580484787.136,412230
1580484797.135,412230
1580484807.134,412230
1580484817.134,412231
1580484827.134,412231
1580484837.134,412232
1580484847.134,412234
1580484857.134,412237
1580484867.134,412237
1580484877.134,412237
1580484887.134,412239
1580484897.134,412239
1580484907.135,412240
1580484917.134,412240
1580484927.135,412240
1580484937.137,412240
1580484947.134,412241
1580484957.136,412242
1580484967.135,412242
1580484977.135,412243
1580484987.134,412244
1580484997.134,412245
