epoch,value
1580229431.085,0
1580229441.085,0
1580229451.086,0
1580229461.085,3
1580229471.085,10
1580229481.086,26
1580229491.085,27
1580229501.085,32
1580229511.085,37
1580229521.085,38
1580229531.085,39
1580229541.088,40
1580229551.085,40
1580229561.085,47
1580229571.085,59
1580229581.085,63
1580229591.086,64
1580229601.085,69
1580229611.086,82
1580229621.085,102
1580229631.085,102
1580229641.085,103
1580229651.085,110
1580229661.085,110
1580229671.085,112
1580229681.086,113
1580229691.085,114
1580229701.086,124
1580229711.085,140
1580229721.089,145
1580229731.085,146
1580229741.085,150
1580229751.085,150
1580229761.086,152
1580229771.085,152
1580229781.085,152
1580229791.085,152
1580229801.086,152
1580229811.085,152
1580229821.086,152
1580229831.085,152
1580229841.092,152
1580229851.085,152
1580229861.085,152
1580229871.085,152
1580229881.085,152
1580229891.085,152
1580229901.086,152
1580229911.085,152
1580229921.085,152
1580229931.085,152
1580229941.085,152
1580229951.085,152
1580229961.085,152
1580229971.085,152
1580229981.085,152
1580229991.085,152
1580230001.085,152
1580230011.085,152
1580230021.085,152
1580230031.085,152
1580230041.085,153
1580230051.086,153
1580230061.085,153
1580230071.085,153
1580230081.085,153
1580230091.085,153
1580230101.085,153
1580230111.085,153
1580230121.085,153
1580230131.085,153
1580230141.085,153
1580230151.085,153
1580230161.085,153
1580230171.086,153
1580230181.085,153
1580230191.085,153
1580230201.085,153
1580230211.085,154
1580230221.085,154
1580230231.085,154
1580230241.085,154
1580230251.085,154
1580230261.085,154
1580230271.085,154
1580230281.085,154
1580230291.085,155
1580230301.085,155
1580230311.085,155
1580230321.085,155
1580230331.085,155
1580230341.085,155
1580230351.085,155
1580230361.085,155
1580230371.085,155
1580230381.085,155
1580230391.085,155
1580230401.085,155
1580230411.086,155
1580230421.085,155
1580230431.085,155
1580230441.085,155
1580230451.085,155
1580230461.085,155
1580230471.085,155
1580230481.085,155
1580230491.085,155
1580230501.085,155
1580230511.085,155
1580230521.085,155
1580230531.085,156
1580230541.085,156
1580230551.085,156
1580230561.085,156
1580230571.085,156
1580230581.085,156
1580230591.086,156
1580230601.085,156
1580230611.085,156
1580230621.085,156
1580230631.085,156
1580230641.085,156
1580230651.085,156
1580230661.085,157
1580230671.085,157
1580230681.085,157
1580230691.085,157
1580230701.085,157
1580230711.085,157
1580230721.085,157
1580230731.085,157
1580230741.086,157
1580230751.085,157
1580230761.085,157
1580230771.085,157
1580230781.085,157
1580230791.085,157
1580230801.085,157
1580230811.085,157
1580230821.085,157
1580230831.085,157
1580230841.085,157
1580230851.085,157
1580230861.085,157
1580230871.085,157
1580230881.085,157
1580230891.085,157
1580230901.085,157
1580230911.085,157
1580230921.085,158
1580230931.085,158
1580230941.085,158
1580230951.085,158
1580230961.092,158
1580230971.085,158
1580230981.085,158
1580230991.085,158
1580231001.085,158
1580231011.091,158
1580231021.085,158
1580231031.085,159
1580231041.085,159
1580231051.085,159
1580231061.085,159
1580231071.085,159
1580231081.085,159
1580231091.085,159
1580231101.091,159
1580231111.085,159
1580231121.085,159
1580231131.085,159
1580231141.085,159
1580231151.085,159
1580231161.085,159
1580231171.085,159
1580231181.085,159
1580231191.085,159
1580231211.088,160
1580231221.085,160
1580231231.085,160
1580231241.085,160
1580231251.085,160
1580231261.085,160
1580231271.085,160
1580231281.085,160
1580231291.085,160
1580231301.085,161
1580231311.085,161
1580231321.085,161
1580231331.085,161
1580231341.085,161
1580231351.085,161
1580231361.085,161
1580231371.085,161
1580231381.085,161
1580231391.085,161
1580231401.085,161
1580231411.085,161
1580231421.085,161
1580231431.085,161
1580231441.085,161
1580231451.085,161
1580231461.085,161
1580231471.085,161
1580231481.085,162
1580231491.085,162
1580231501.085,162
1580231511.085,162
1580231521.085,162
1580231531.085,162
1580231541.085,162
1580231551.085,162
1580231561.085,162
1580231571.085,162
1580231581.089,162
1580231591.085,162
1580231601.085,162
1580231611.085,163
1580231621.085,163
1580231631.085,163
1580231641.085,163
1580231651.085,163
1580231661.085,163
1580231671.085,163
1580231681.086,163
1580231691.085,163
1580231701.085,163
1580231711.085,163
1580231721.085,163
1580231731.085,163
1580231741.085,163
1580231751.085,163
1580231761.085,163
1580231771.085,163
1580231781.085,163
1580231791.085,163
1580231801.085,163
1580231811.085,163
1580231821.085,163
1580231831.085,164
1580231841.085,164
1580231851.085,164
1580231861.085,164
1580231871.085,164
1580231881.085,164
1580231891.085,164
1580231901.085,164
1580231911.085,164
1580231921.085,164
1580231931.085,164
1580231941.085,164
1580231951.085,164
1580231961.085,164
1580231971.085,164
1580231981.085,164
1580231991.085,164
1580232001.085,164
1580232011.085,164
1580232021.085,165
1580232031.086,165
1580232041.085,165
1580232051.085,165
1580232061.086,165
1580232071.085,165
1580232081.085,165
1580232091.085,165
1580232101.085,166
1580232111.085,166
1580232121.085,166
1580232131.086,166
1580232141.085,166
1580232151.085,166
1580232161.085,167
1580232171.085,167
